Sheet Name,Segment,Index,total_beat_count,Sel_Min,diff,diff_n,mean,mean_n,temp,temp_raw_diff,temp_n,temp_diff,rise_low,rise_low_n,rise_low_diff,rise_low_n_inv,rise_low_n_inv_center,HR_n_center,HR_n_center_lim,diff_n_center,diff_anker,rl_inv_corr,inv_corr,datetime,time_gap_seconds,CGM,CGM_n,SMBG,SMBG_n,HR,HR_n,r20,r40,r60,r80,r100
Green_YC310_Pro_5B88_260927_155643.csv,1,1,42,26,20675,0.0427001,5.39549e+06,0.479099,32.81,0,0.468333,0,0.0531707,0.342426,0,0.657574,0.657574,0.62661,0.62661,0.0427001,0.239062,0.298789,0.321429,2026-09-27 15:57:22,0,6.9,0.35,0,0,90.1288,0.62661,0,0.341463,0.658537,0,0
Green_YC310_Pro_5B88_260927_155859.csv,1,2,43,28,16705.5,0.026822,5.3833e+06,0.47666,32.95,0.14,0.491667,0.0233337,0.0486364,0.264248,-0.00453434,0.735752,0.705073,0.632822,0.632822,0.0371837,0.247584,0.321533,0.335651,2026-09-27 15:59:36,134,6.6,0.328571,0,0,91.8149,0.647686,0.0227273,0.522727,0.454545,0,0
Green_YC310_Pro_5B88_260927_160118.csv,1,3,41,24,17880.1,0.0315203,5.34076e+06,0.468153,33.12,0.17,0.52,0.028333,0.0512195,0.308785,0.00258311,0.691215,0.713763,0.640922,0.640922,0.042029,0.255494,0.32179,0.327998,2026-09-27 16:01:53,137,6.6,0.328571,0,0,88.7446,0.609308,0,0.439024,0.560976,0,0
Green_YC310_Pro_5B88_260927_160338.csv,1,4,44,7,24309,0.0572361,5.45529e+06,0.491058,33.26,0.14,0.543333,0.0233333,0.0485714,0.263128,-0.00264807,0.736872,0.716427,0.658906,0.643585,0.0454332,0.262132,0.320963,0.320532,2026-09-27 16:04:17,144,6.8,0.342857,0,0,95.791,0.697387,0.0571429,0.485714,0.428571,0.0285714,0
Green_YC310_Pro_5B88_260927_160557.csv,1,5,44,26,19258.6,0.0370344,5.49599e+06,0.499198,33.39,0.13,0.565,0.021667,0.0506667,0.299253,0.00209527,0.700747,0.722309,0.670023,0.649468,0.0445615,0.269148,0.321375,0.313929,2026-09-27 16:06:30,133,6.8,0.342857,0,0,92.9577,0.661971,0.0222222,0.422222,0.555556,0,0
Green_YC310_Pro_5B88_260927_160814.csv,1,6,44,33,21735.3,0.0469412,5.46958e+06,0.493916,33.5,0.11,0.583333,0.0183333,0.0481818,0.256411,-0.00248488,0.743589,0.729308,0.659583,0.639028,0.0436876,0.275113,0.320265,0.306854,2026-09-27 16:08:47,137,6.8,0.342857,0,0,91.4127,0.642659,0,0.590909,0.409091,0,0
Green_YC310_Pro_5B88_260927_161105.csv,1,7,43,29,20958.4,0.0438337,5.44946e+06,0.489891,33.62,0.12,0.603333,0.0200003,0.0481818,0.256411,1.81818e-08,0.743589,0.747188,0.649143,0.628588,0.0456209,0.28101,0.324915,0.305606,2026-09-27 16:11:44,177,6.5,0.321429,0,0,91.4894,0.643618,0,0.590909,0.409091,0,0
Green_YC310_Pro_5B88_260927_161325.csv,1,8,44,26,21360.9,0.0454437,5.43075e+06,0.48615,33.72,0.1,0.62,0.016667,0.0475556,0.245613,-0.000626244,0.754387,0.732714,0.656675,0.63612,0.0460879,0.286167,0.314459,0.289994,2026-09-27 16:14:00,136,6.5,0.321429,0,0,92.8923,0.661154,0,0.622222,0.377778,0,0
Green_YC310_Pro_5B88_260927_161542.csv,1,9,44,19,22246.6,0.0489862,5.40884e+06,0.481768,33.83,0.11,0.638333,0.0183333,0.0509091,0.303433,0.00335349,0.696567,0.721958,0.640451,0.625363,0.0544134,0.290189,0.302651,0.274164,2026-09-27 16:16:18,138,6.2,0.3,0,0,93.2203,0.665254,0.0227273,0.431818,0.522727,0.0227273,0
Green_YC310_Pro_5B88_260927_161802.csv,1,10,42,39,27202.5,0.0688102,5.4512e+06,0.490241,33.88,0.05,0.646667,0.00833367,0.0483721,0.259691,-0.00253701,0.740309,0.727369,0.624228,0.609139,0.0624005,0.29113,0.301896,0.272468,2026-09-27 16:18:36,138,6.2,0.3,0,0,88.359,0.604487,0.0232558,0.534884,0.44186,0,0
Green_YC310_Pro_5B88_260927_162020.csv,1,11,42,16,25994.5,0.063978,5.5164e+06,0.503281,33.96,0.08,0.66,0.013333,0.0488372,0.267711,0.000465109,0.732289,0.736641,0.586195,0.571107,0.0709248,0.293534,0.299457,0.267625,2026-09-27 16:20:53,137,6.2,0.3,0,0,88.2353,0.602941,0,0.55814,0.44186,0,0
Green_YC310_Pro_5B88_260927_162238.csv,1,12,40,31,30781.8,0.0831271,5.63389e+06,0.526779,34,0.04,0.666667,0.00666667,0.0482927,0.258322,-0.000544517,0.741678,0.732974,0.579597,0.56744,0.0799863,0.293722,0.295209,0.263189,2026-09-27 16:23:13,140,5.5,0.25,0,0,84.0925,0.551156,0.0243902,0.536585,0.439024,0,0
Green_YC310_Pro_5B88_260927_162527.csv,1,13,40,39,33213.5,0.0928539,5.61497e+06,0.522993,34.02,0.02,0.67,0.003333,0.0487805,0.266733,0.000487788,0.733267,0.724955,0.572999,0.560842,0.0944013,0.291729,0.28919,0.259163,2026-09-27 16:26:01,168,5.5,0.25,0,0,84.507,0.556338,0,0.560976,0.439024,0,0
Green_YC310_Pro_5B88_260927_162747.csv,1,14,42,41,36805.9,0.107223,5.75112e+06,0.550224,34.04,0.02,0.673333,0.00333333,0.0502326,0.291768,0.00145206,0.708232,0.739773,0.597346,0.57566,0.0940228,0.29286,0.3,0.268842,2026-09-27 16:28:23,142,5.5,0.25,0,0,88.9203,0.611504,0,0.488372,0.511628,0,0
Green_YC310_Pro_5B88_260927_163006.csv,1,15,42,34,30111,0.080444,5.77836e+06,0.555672,34.05,0.01,0.675,0.001667,0.0457143,0.213867,-0.00451831,0.786133,0.727186,0.591819,0.570133,0.0949667,0.293186,0.291896,0.260412,2026-09-27 16:30:42,139,5.5,0.25,0,0,89.9358,0.624197,0,0.714286,0.285714,0,0
Green_YC310_Pro_5B88_260927_163226.csv,1,16,42,21,35343.7,0.101375,5.73001e+06,0.546002,34.09,0.04,0.681667,0.00666667,0.0548718,0.371755,0.00915749,0.628245,0.692663,0.586292,0.564606,0.097233,0.29481,0.270509,0.237401,2026-09-27 16:33:00,138,4.9,0.207143,0,0,89.4251,0.617814,0,0.25641,0.74359,0,0
Green_YC310_Pro_5B88_260927_163444.csv,1,17,39,22,37470.1,0.10988,5.71879e+06,0.543758,34.13,0.04,0.688333,0.00666633,0.0533333,0.34523,-0.00153847,0.65477,0.663612,0.572527,0.550841,0.107275,0.294791,0.25111,0.218021,2026-09-27 16:35:20,140,4.9,0.207143,0,0,83.871,0.548387,0,0.361111,0.611111,0.0277778,0
Green_YC310_Pro_5B88_260927_163705.csv,1,18,40,28,37642.6,0.11057,5.89515e+06,0.579029,34.17,0.04,0.695,0.006667,0.0507692,0.301021,-0.00256407,0.698979,0.667849,0.558763,0.537076,0.101469,0.298119,0.250352,0.213935,2026-09-27 16:37:39,139,4.9,0.207143,0,0,84.3289,0.554111,0,0.461538,0.538462,0,0
Green_YC310_Pro_5B88_260927_163951.csv,1,19,40,23,32137.6,0.0885506,4.95402e+06,0.390803,34.25,0.08,0.708333,0.0133333,0.0526829,0.334016,0.00191373,0.665984,0.672086,0.556432,0.534745,0.095663,0.303549,0.249754,0.207907,2026-09-27 16:40:25,166,4.9,0.207143,0,0,85.531,0.569138,0,0.365854,0.634146,0,0
Green_YC310_Pro_5B88_260927_164211.csv,1,20,39,19,30189,0.080756,4.71013e+06,0.342026,34.28,0.03,0.713333,0.00500033,0.0538889,0.354808,0.00120599,0.645192,0.665012,0.554101,0.532415,0.0958293,0.305091,0.244489,0.2011,2026-09-27 16:42:45,140,5.6,0.257143,0,0,84.4156,0.555195,0,0.305556,0.694444,0,0
Green_YC310_Pro_5B88_260927_164432.csv,1,21,39,36,33140.2,0.092561,4.83251e+06,0.366502,34.29,0.01,0.715,0.001667,0.052,0.322241,-0.0018889,0.677759,0.657302,0.53532,0.524704,0.0959955,0.305581,0.237386,0.193507,2026-09-27 16:45:08,143,5.6,0.257143,0,0,83.0376,0.53797,0,0.4,0.6,0,0
Green_YC310_Pro_5B88_260927_164650.csv,1,22,38,11,37808.6,0.111235,4.89985e+06,0.37997,34.3,0.01,0.716667,0.00166667,0.0548571,0.371502,0.00285714,0.628498,0.649994,0.557639,0.547024,0.100761,0.3051,0.235873,0.192475,2026-09-27 16:47:27,139,5.6,0.257143,0,0,81.0235,0.512794,0,0.257143,0.742857,0,0
Green_YC310_Pro_5B88_260927_164911.csv,1,23,39,15,36416,0.105664,4.85095e+06,0.37019,34.35,0.05,0.725,0.008333,0.0527273,0.334781,-0.00212983,0.665219,0.65032,0.579958,0.54735,0.105527,0.306721,0.237303,0.192284,2026-09-27 16:49:46,139,5.6,0.257143,0,0,81.59,0.519875,0,0.393939,0.575758,0.030303,0
Green_YC310_Pro_5B88_260927_165127.csv,1,24,42,12,34954.8,0.0998194,4.95036e+06,0.390071,34.4,0.05,0.733333,0.00833333,0.0540541,0.357656,0.00132675,0.642344,0.672003,0.595967,0.563359,0.108125,0.3088,0.249869,0.20277,2026-09-27 16:52:02,136,5.6,0.257143,0,0,91.7698,0.647123,0.027027,0.27027,0.675676,0.027027,0
Green_YC310_Pro_5B88_260927_165416.csv,1,25,40,30,37172.4,0.10869,4.83816e+06,0.367633,34.44,0.04,0.74,0.006667,0.0485,0.261897,-0.0055541,0.738103,0.691277,0.587307,0.554699,0.110722,0.310354,0.258199,0.209547,2026-09-27 16:54:54,172,5.9,0.278571,0,0,84.8656,0.56082,0,0.575,0.425,0,0
Green_YC310_Pro_5B88_260927_165635.csv,1,26,41,31,40406.2,0.121625,4.83804e+06,0.367607,34.4,-0.04,0.733333,-0.00666667,0.0538095,0.35344,0.00530952,0.64656,0.67921,0.569336,0.542631,0.107868,0.308854,0.250428,0.203276,2026-09-27 16:57:11,137,5.9,0.278571,0,0,86.4371,0.580464,0,0.333333,0.642857,0.0238095,0
Green_YC310_Pro_5B88_260927_165854.csv,1,27,40,21,38908.1,0.115632,4.86431e+06,0.372862,34.41,0.01,0.735,0.001667,0.0533333,0.34523,-0.000476167,0.65477,0.652968,0.575051,0.548347,0.105013,0.309983,0.236146,0.187865,2026-09-27 16:59:55,164,6.1,0.292857,0,0,84.4476,0.555595,0,0.358974,0.615385,0.025641,0
Green_YC310_Pro_5B88_260927_170114.csv,1,28,40,25,32100.4,0.0884016,4.8826e+06,0.37652,34.42,0.01,0.736667,0.00166667,0.0531707,0.342426,-0.000162568,0.657574,0.668179,0.589095,0.562391,0.113063,0.308808,0.246164,0.199057,2026-09-27 17:01:49,114,6.1,0.292857,0,0,84.7458,0.559323,0,0.341463,0.658537,0,0
Green_YC310_Pro_5B88_260927_170334.csv,1,29,42,24,42908.3,0.131633,4.83735e+06,0.36747,34.44,0.02,0.74,0.003333,0.0511628,0.307807,-0.00200791,0.692193,0.652557,0.585177,0.558473,0.121114,0.308159,0.236237,0.18978,2026-09-27 17:04:09,140,6.1,0.292857,0,0,89.8076,0.622595,0,0.44186,0.55814,0,0
Green_YC310_Pro_5B88_260927_170550.csv,1,30,40,7,45826.4,0.143306,4.77026e+06,0.354053,34.46,0.02,0.743333,0.00333333,0.0566667,0.402701,0.00550387,0.597299,0.640296,0.57488,0.548176,0.139999,0.305222,0.22736,0.18384,2026-09-27 17:06:46,157,6.3,0.307143,0,0,83.5073,0.543841,0,0.194444,0.777778,0.0277778,0
Green_YC310_Pro_5B88_260927_170809.csv,1,31,40,29,46264.2,0.145057,4.82094e+06,0.364189,34.47,0.01,0.745,0.001667,0.0521951,0.325606,-0.00447158,0.674394,0.647341,0.558204,0.5315,0.134091,0.306996,0.228795,0.183501,2026-09-27 17:08:44,118,6.3,0.307143,0,0,84.686,0.558575,0,0.390244,0.609756,0,0
Green_YC310_Pro_5B88_260927_171058.csv,1,32,40,31,41068,0.124272,4.81835e+06,0.363669,34.46,-0.01,0.743333,-0.00166667,0.054,0.356724,0.0018049,0.643276,0.653211,0.586842,0.53737,0.128183,0.307718,0.236154,0.190138,2026-09-27 17:11:34,170,6.3,0.307143,0,0,85.7756,0.572195,0,0.3,0.7,0,0
Green_YC310_Pro_5B88_260927_171325.csv,1,33,42,25,37826.9,0.111308,4.84406e+06,0.368812,34.44,-0.02,0.74,-0.003333,0.0535,0.348103,-0.0005,0.651897,0.648818,0.606089,0.556617,0.125613,0.307209,0.236873,0.191366,2026-09-27 17:14:02,148,6.7,0.335714,0,0,89.2984,0.61623,0,0.325,0.675,0,0
Green_YC310_Pro_5B88_260927_171536.csv,1,34,42,11,44336.8,0.137347,4.85573e+06,0.371146,34.4,-0.04,0.733333,-0.00666667,0.0537143,0.351798,0.000214286,0.648202,0.648202,0.629842,0.58037,0.137347,0.302629,0.240963,0.200035,2026-09-27 17:16:11,129,6.7,0.335714,0,0,90.3874,0.629842,0,0.342857,0.628571,0.0285714,0
