Sheet Name,Segment,Index,total_beat_count,Sel_Min,diff,diff_n,mean,mean_n,temp,temp_raw_diff,temp_n,temp_diff,rise_low,rise_low_n,rise_low_diff,rise_low_n_inv,rise_low_n_inv_center,HR_n_center,HR_n_center_lim,diff_n_center,diff_anker,rl_inv_corr,inv_corr,datetime,time_gap_seconds,CGM,CGM_n,SMBG,SMBG_n,HR,HR_n,r20,r40,r60,r80,r100,time_gap_state,time_gap_slot,time_gap_offset_s,rise_low_50
Green_YC310_Pro_5B88_260928_103511.csv,2,1,40,30,20036.1,0.0401445,5.43326e+06,0.486651,31.56,0,0.26,0,0.0552632,0.378503,0,0.621497,0.621497,0.545296,0.545296,0.0401445,0.173916,0.480549,0.421429,2026-09-28 10:35:44,0,5.9,0.278571,0,0,83.6237,0.545296,0,0.263158,0.710526,0.0263158,0,1,0,0,0.116757
Green_YC310_Pro_5B88_260928_103728.csv,2,2,41,19,22593.1,0.0503724,5.62563e+06,0.525127,31.56,0,0.26,-2.22045e-16,0.0569231,0.407122,0.00165988,0.592878,0.581628,0.548994,0.548994,0.0455506,0.172774,0.458771,0.400792,2026-09-28 10:38:01,137,6.2,0.3,0,0,87.1105,0.588881,0.025641,0.128205,0.820513,0.025641,0,1,1,0,0.119412
Green_YC310_Pro_5B88_260928_103947.csv,2,3,37,28,22739.2,0.0509568,5.62904e+06,0.525808,31.58,0.02,0.263333,0.00333333,0.0605405,0.469492,0.00361744,0.530508,0.513921,0.512803,0.512803,0.0479214,0.173324,0.414815,0.356285,2026-09-28 10:40:23,142,6.3,0.307143,0,0,79.7987,0.497484,0,0,0.972973,0.027027,0,1,2,0,0.124211
Green_YC310_Pro_5B88_260928_104205.csv,2,4,36,22,21814.1,0.0472566,5.57125e+06,0.514251,31.66,0.08,0.276667,0.0133337,0.0605405,0.469492,4.05405e-08,0.530508,0.489121,0.461897,0.488003,0.0557559,0.175874,0.3907,0.329621,2026-09-28 10:42:49,146,6.1,0.292857,0,0,76.1636,0.452045,0,0.108108,0.756757,0.135135,0,1,3,0,0.121143
Green_YC310_Pro_5B88_260928_104426.csv,2,5,35,7,29388.4,0.0775537,5.68497e+06,0.536993,31.7,0.04,0.283333,0.00666633,0.0677419,0.593654,0.00720144,0.406346,0.452889,0.455565,0.48167,0.0607102,0.17693,0.368136,0.306001,2026-09-28 10:45:03,134,5.9,0.278571,0,0,74.893,0.436163,0,0.0967742,0.483871,0.354839,0.0645161,1,4,0,0.144762
Green_YC310_Pro_5B88_260928_104644.csv,2,6,35,28,20119.2,0.0404766,5.54344e+06,0.508689,31.8,0.1,0.3,0.016667,0.0644444,0.536801,-0.00329746,0.463199,0.439882,0.454703,0.480808,0.0563029,0.183115,0.357391,0.289071,2026-09-28 10:47:17,134,5.9,0.278571,0,0,77.4908,0.468635,0,0,0.777778,0.222222,0,1,5,0,0.122424
Green_YC310_Pro_5B88_260928_104903.csv,2,7,36,33,21735.2,0.0469408,6.15896e+06,0.631793,31.88,0.08,0.313333,0.0133333,0.0648649,0.544049,0.000420465,0.455951,0.4501,0.47244,0.491026,0.0508785,0.188465,0.36308,0.289411,2026-09-28 10:49:36,139,6.4,0.314286,0,0,75.6303,0.445379,0,0.027027,0.702703,0.27027,0,1,6,0,0.132571
Green_YC310_Pro_5B88_260928_105123.csv,2,8,38,7,26304.5,0.0652181,4.90848e+06,0.381697,31.88,0,0.313333,3.33333e-07,0.0567742,0.404555,-0.00809071,0.595445,0.37712,0.443582,0.462167,0.0787713,0.182575,0.317926,0.250147,2026-09-28 10:52:00,144,6.8,0.342857,0,0,82.4295,0.530369,0.0322581,0.258065,0.548387,0.16129,0,1,7,0,0.13625
Green_YC310_Pro_5B88_260928_105411.csv,2,9,27,5,41038.7,0.124155,4.49288e+06,0.298577,31.97,0.09,0.328333,0.0150003,0.0771429,0.755739,0.0203687,0.244261,0.381503,0.393413,0.411999,0.0725281,0.188622,0.30993,0.236103,2026-09-28 10:54:47,167,6.9,0.35,0,0,61.4568,0.26821,0,0,0.428571,0.285714,0.285714,1,8,30,0.136667
Green_YC310_Pro_5B88_260928_105630.csv,2,10,33,4,19052.2,0.036209,4.24665e+06,0.24933,32.02,0.05,0.336667,0.00833367,0.068,0.598103,-0.0091429,0.401897,0.385887,0.381661,0.400247,0.0662849,0.192568,0.308973,0.2312,2026-09-28 10:57:07,140,7,0.357143,0,0,70.8155,0.385194,0,0.16,0.36,0.4,0.08,1,9,30,0.125
Green_YC310_Pro_5B88_260928_105852.csv,2,11,38,17,12103.7,0.0084148,4.97714e+06,0.395429,31.93,-0.09,0.321667,-0.0150003,0.0607143,0.472488,-0.00728571,0.527512,0.419441,0.388762,0.407348,0.0720749,0.186616,0.331818,0.259997,2026-09-28 10:59:26,139,7.1,0.364286,0,0,79.6089,0.495111,0,0.142857,0.678571,0.178571,0,1,10,30,0.1352
Green_YC310_Pro_5B88_260928_110108.csv,2,12,31,2,23318.8,0.0532751,5.26409e+06,0.452819,31.84,-0.09,0.306667,-0.0150003,0.0713043,0.655075,0.01059,0.344925,0.436289,0.395864,0.41445,0.0778649,0.180664,0.345308,0.279439,2026-09-28 11:01:43,137,7.4,0.385714,0,0,67.2451,0.340564,0,0.0869565,0.391304,0.391304,0.130435,1,11,30,0.156364
Green_YC310_Pro_5B88_260928_110327.csv,2,13,27,30,46828.8,0.147315,5.68878e+06,0.537757,31.86,0.02,0.31,0.003333,0.0675,0.589483,-0.0038043,0.410517,0.436431,0.390784,0.40937,0.0859478,0.180008,0.343966,0.278753,2026-09-28 11:04:07,144,7.7,0.407143,0,0,63.7293,0.296616,0,0,0.75,0.125,0.125,1,12,30,0.1275
Green_YC310_Pro_5B88_260928_110546.csv,2,14,37,9,22455.2,0.0498209,5.10835e+06,0.42167,31.97,0.11,0.328333,0.0183333,0.0606897,0.472063,-0.00681034,0.527937,0.484157,0.400805,0.419391,0.0940306,0.184082,0.368514,0.299227,2026-09-28 11:06:22,135,8,0.428571,0,0,78.3898,0.479872,0,0.206897,0.62069,0.103448,0.0689655,1,13,30,0.13875
Green_YC310_Pro_5B88_260928_110804.csv,2,15,32,8,20186.6,0.0407462,4.57391e+06,0.314781,32,0.03,0.333333,0.00500033,0.063,0.511897,0.0023103,0.488103,0.528151,0.431372,0.449957,0.0619663,0.192429,0.39669,0.319056,2026-09-28 11:08:39,137,8.3,0.45,0,0,67.7488,0.34686,0,0.2,0.5,0.25,0.05,1,14,30,0.102
Green_YC310_Pro_5B88_260928_111054.csv,2,16,40,20,22780.5,0.051122,5.32468e+06,0.464936,31.94,-0.06,0.323333,-0.00999967,0.0589189,0.441533,-0.00408108,0.558467,0.568412,0.457599,0.476185,0.046206,0.192604,0.425131,0.347322,2026-09-28 11:11:28,169,8.3,0.45,0,0,84.1515,0.551894,0,0.0810811,0.891892,0.027027,0,1,15,60,0.123077
Green_YC310_Pro_5B88_260928_111313.csv,2,17,38,22,20458.5,0.0418339,5.14453e+06,0.428906,31.97,0.03,0.328333,0.00500033,0.0536842,0.351279,-0.00523469,0.648721,0.56937,0.474043,0.477143,0.0545048,0.192428,0.42711,0.349476,2026-09-28 11:13:47,139,8.6,0.471429,0,0,80.7938,0.509923,0,0.342105,0.631579,0.0263158,0,1,16,60,0.111613
Green_YC310_Pro_5B88_260928_111533.csv,2,18,32,14,30807.3,0.0832292,5.27995e+06,0.455991,32.04,0.07,0.34,0.011667,0.0606061,0.470622,0.00692186,0.529378,0.570328,0.459191,0.462291,0.0651362,0.193862,0.423107,0.344041,2026-09-28 11:16:10,143,8.8,0.485714,0,0,71.6953,0.396191,0,0.0909091,0.787879,0.121212,0,1,17,60,0.126207
Green_YC310_Pro_5B88_260928_111751.csv,2,19,35,26,25486.1,0.0619445,5.26479e+06,0.452958,32.12,0.08,0.353333,0.0133333,0.0627778,0.508065,0.00217168,0.491935,0.546802,0.44434,0.44744,0.0703454,0.196966,0.40506,0.32289,2026-09-28 11:18:28,138,9.3,0.521429,0,0,76.1421,0.451776,0,0.0277778,0.805556,0.166667,0,1,18,60,0.122941
Green_YC310_Pro_5B88_260928_112009.csv,2,20,37,16,24365.4,0.0574616,5.14727e+06,0.429454,32.16,0.04,0.36,0.006667,0.0577778,0.421858,-0.00500002,0.578142,0.531799,0.440885,0.443985,0.0688415,0.199385,0.394812,0.310222,2026-09-28 11:20:45,137,9.2,0.514286,0,0,79.3991,0.492489,0,0.194444,0.722222,0.0833333,0,1,19,60,0.114375
Green_YC310_Pro_5B88_260928_112229.csv,2,21,33,22,29679.4,0.0787174,5.32815e+06,0.465629,32.24,0.08,0.373333,0.0133333,0.0635294,0.521024,0.00575161,0.478976,0.52597,0.45337,0.45647,0.0679186,0.203784,0.390736,0.301747,2026-09-28 11:23:04,139,8.8,0.485714,0,0,70.8661,0.385826,0,0,0.823529,0.176471,0,1,20,60,0.131875
Green_YC310_Pro_5B88_260928_112447.csv,2,22,38,17,24194.5,0.0567782,5.24998e+06,0.449995,32.27,0.03,0.378333,0.00500033,0.0583784,0.432213,-0.00515102,0.567787,0.526793,0.480836,0.457292,0.0700617,0.204908,0.394275,0.304162,2026-09-28 11:25:23,139,8.9,0.492857,0,0,83.947,0.549338,0,0.216216,0.648649,0.135135,0,1,21,60,0.135455
Green_YC310_Pro_5B88_260928_112707.csv,2,23,35,13,31993.3,0.087973,5.35898e+06,0.471797,32.32,0.05,0.386667,0.00833367,0.06,0.460172,0.0016216,0.539828,0.533615,0.467769,0.444226,0.073361,0.206839,0.394488,0.302445,2026-09-28 11:27:41,138,8.3,0.45,0,0,75.1073,0.438841,0,0.222222,0.62963,0.0740741,0.0740741,1,22,60,0.118182
Green_YC310_Pro_5B88_260928_112926.csv,2,24,36,31,25179.9,0.0607197,5.26129e+06,0.452258,32.35,0.03,0.391667,0.00499967,0.0627027,0.506771,0.0027027,0.493229,0.491454,0.428709,0.405166,0.0734928,0.208387,0.364078,0.270485,2026-09-28 11:30:02,141,7.9,0.421429,0,0,75.5245,0.444056,0,0.0540541,0.756757,0.189189,0,1,23,60,0.122778
Green_YC310_Pro_5B88_260928_113215.csv,2,25,34,18,31139.8,0.084559,5.32742e+06,0.465484,32.41,0.06,0.401667,0.00999967,0.0657143,0.558695,0.00301159,0.441305,0.505378,0.425998,0.402455,0.0750513,0.211211,0.369473,0.273056,2026-09-28 11:32:51,169,7.9,0.421429,0,0,71.0306,0.387883,0,0.0857143,0.571429,0.314286,0.0285714,1,24,90,0.133846
Green_YC310_Pro_5B88_260928_113434.csv,2,26,35,19,27591.9,0.0703677,5.36294e+06,0.472587,32.43,0.02,0.405,0.003333,0.0622857,0.499581,-0.00342859,0.500419,0.519302,0.446056,0.416379,0.0852676,0.210105,0.379582,0.284272,2026-09-28 11:35:11,140,8.3,0.45,0,0,76.6423,0.458029,0,0.0571429,0.771429,0.171429,0,1,25,90,0.12
Green_YC310_Pro_5B88_260928_113653.csv,2,27,38,8,38943.9,0.115776,5.20835e+06,0.441669,32.5,0.07,0.416667,0.0116667,0.0566667,0.402701,-0.00561903,0.597299,0.547985,0.443766,0.414089,0.100267,0.210616,0.392971,0.29715,2026-09-28 11:37:29,138,7.7,0.407143,7.7,0.407143,80.3383,0.504229,0,0.333333,0.533333,0.1,0.0333333,1,26,90,0.08625
Green_YC310_Pro_5B88_260928_113912.csv,2,28,35,13,34787.6,0.0991502,5.0915e+06,0.4183,32.58,0.08,0.43,0.013333,0.0654545,0.554216,0.00878785,0.445784,0.576668,0.441476,0.411799,0.126995,0.209176,0.406027,0.311646,2026-09-28 11:39:52,143,7.6,0.4,0,0,73.0181,0.412726,0,0.0909091,0.666667,0.121212,0.121212,1,27,90,0.133684
Green_YC310_Pro_5B88_260928_114131.csv,2,29,34,2,37444.4,0.109778,4.52981e+06,0.305961,32.63,0.05,0.438333,0.00833333,0.0584615,0.433647,-0.00699296,0.566353,0.573932,0.389715,0.409063,0.166058,0.203555,0.395141,0.306381,2026-09-28 11:42:12,140,7.6,0.4,0,0,72.5979,0.407474,0.0384615,0.230769,0.576923,0.0769231,0.0769231,1,28,90,0.1
Green_YC310_Pro_5B88_260928_114350.csv,2,30,29,5,68241.3,0.232965,4.96483e+06,0.392966,32.67,0.04,0.445,0.006667,0.0571429,0.410911,-0.00131864,0.589089,0.589089,0.348946,0.368293,0.232965,0.191528,0.396241,0.319508,2026-09-28 11:44:35,143,7.3,0.378571,0,0,67.9157,0.348946,0,0.285714,0.571429,0.142857,0,1,29,90,0.108
