Sheet Name,Segment,Index,total_beat_count,Sel_Min,diff,diff_n,mean,mean_n,temp,temp_raw_diff,temp_n,temp_diff,rise_low,rise_low_n,rise_low_diff,rise_low_n_inv,rise_low_n_inv_center,HR_n_center,HR_n_center_lim,diff_n_center,diff_anker,rl_inv_corr,inv_corr,datetime,time_gap_seconds,CGM,CGM_n,SMBG,SMBG_n,HR,HR_n,r20,r40,r60,r80,r100,time_gap_state,time_gap_slot,time_gap_offset_s,rise_low_50
Green_YC310_Pro_5B88_260928_062730.csv,1,1,31,21,56427,0.185708,6.0934e+06,0.618679,33.34,0,0.556667,0,0.06125,0.481724,0,0.518276,0.518276,0.33814,0.33814,0.185708,0.236715,0.322363,0.342858,2026-09-28 06:28:02,0,5.7,0.264286,0,0,67.0512,0.33814,0,0.03125,0.875,0.09375,0,0,-1,-1,0.12
Green_YC310_Pro_5B88_260928_063012.csv,1,2,31,28,59839,0.199356,6.26993e+06,0.653985,33.4,0.06,0.566667,0.00999967,0.06125,0.481724,3.46945e-17,0.518276,0.523609,0.363578,0.343473,0.185692,0.239872,0.327692,0.34503,2026-09-28 06:30:44,162,5.6,0.257143,0,0,65.864,0.3233,0,0,0.9375,0.0625,0,0,-1,-1,0.12129
Green_YC310_Pro_5B88_260928_063256.csv,1,3,43,42,49587.1,0.158348,6.38412e+06,0.676824,33.46,0.06,0.576667,0.00999967,0.0513636,0.31127,-0.00988636,0.68873,0.529868,0.429293,0.349732,0.180101,0.244205,0.333021,0.346026,2026-09-28 06:33:30,166,5.7,0.264286,0,0,91.2306,0.640382,0,0.431818,0.568182,0,0,0,-1,-1,0.0995455
Green_YC310_Pro_5B88_260928_063538.csv,1,4,32,30,61087.7,0.204351,6.69582e+06,0.739164,33.51,0.05,0.585,0.008333,0.0593939,0.449723,0.00803034,0.550277,0.536127,0.464924,0.355991,0.192073,0.244305,0.338379,0.351284,2026-09-28 06:36:10,160,5.7,0.264286,0,0,67.3684,0.342105,0,0.0606061,0.909091,0.030303,0,0,-1,-1,0.116364
Green_YC310_Pro_5B88_260928_063822.csv,1,5,35,32,60310,0.20124,6.80121e+06,0.760242,33.52,0.01,0.586667,0.00166667,0.0555556,0.383544,-0.00383834,0.616456,0.55351,0.457967,0.349034,0.207324,0.24161,0.347093,0.362693,2026-09-28 06:38:53,163,5.8,0.271429,0,0,74.4153,0.430191,0,0.222222,0.777778,0,0,0,-1,-1,0.110556
Green_YC310_Pro_5B88_260928_064104.csv,1,6,36,27,62606.8,0.210427,6.95244e+06,0.790488,33.51,-0.01,0.585,-0.001667,0.0572973,0.413574,0.0017417,0.586426,0.552931,0.417452,0.348455,0.21638,0.239172,0.3431,0.361138,2026-09-28 06:41:35,162,5.8,0.271429,0,0,74.896,0.4362,0,0.135135,0.864865,0,0,0,-1,-1,0.111667
Green_YC310_Pro_5B88_260928_064346.csv,1,7,35,31,69368.5,0.237474,7.09915e+06,0.819829,33.49,-0.02,0.581667,-0.00333333,0.06,0.460172,0.0027027,0.539828,0.552351,0.385965,0.347875,0.232636,0.234688,0.340332,0.362853,2026-09-28 06:44:17,162,5.8,0.271429,0,0,72.8155,0.410194,0,0.0571429,0.885714,0.0571429,0,0,-1,-1,0.121143
Green_YC310_Pro_5B88_260928_064628.csv,1,8,31,27,72502.1,0.250008,7.24203e+06,0.848405,33.45,-0.04,0.575,-0.006667,0.06125,0.481724,0.00125,0.518276,0.536818,0.38344,0.34535,0.224156,0.234377,0.332717,0.35555,2026-09-28 06:47:00,163,5.8,0.271429,0,0,66.8584,0.33573,0,0,0.9375,0.0625,0,0,-1,-1,0.119355
Green_YC310_Pro_5B88_260928_064911.csv,1,9,34,26,57456.2,0.189825,7.49587e+06,0.899173,33.4,-0.05,0.566667,-0.00833333,0.06,0.460172,-0.00125,0.539828,0.518766,0.372076,0.333986,0.21795,0.23306,0.323152,0.347302,2026-09-28 06:49:42,162,5.8,0.271429,0,0,74.2899,0.428624,0,0.0285714,0.942857,0.0285714,0,0,-1,-1,0.118857
Green_YC310_Pro_5B88_260928_065154.csv,1,10,33,19,62319.3,0.209277,7.78127e+06,0.956255,33.34,-0.06,0.556667,-0.0100003,0.0636364,0.522868,0.00363636,0.477132,0.501869,0.351874,0.31709,0.214017,0.230737,0.313694,0.340167,2026-09-28 06:52:27,165,5.8,0.271429,0,0,70.5128,0.38141,0,0.0606061,0.69697,0.242424,0,0,-1,-1,0.135862
Green_YC310_Pro_5B88_260928_065435.csv,1,11,29,28,69552.5,0.23821,7.95435e+06,0.990869,33.27,-0.07,0.545,-0.011667,0.0633333,0.517644,-0.000303067,0.482356,0.488648,0.318069,0.303869,0.193706,0.231348,0.305284,0.331146,2026-09-28 06:55:07,160,5.8,0.271429,0,0,62.01,0.275125,0,0,0.833333,0.166667,0,0,-1,-1,0.13
Green_YC310_Pro_5B88_260928_065719.csv,1,12,30,11,42222.5,0.12889,4.86147e+06,0.372293,33.22,-0.05,0.536667,-0.00833333,0.0619355,0.493543,-0.00139782,0.506457,0.505583,0.298606,0.284406,0.176599,0.232333,0.314512,0.339389,2026-09-28 06:57:52,165,5.7,0.264286,0,0,66.1765,0.327206,0,0,0.903226,0.0967742,0,0,-1,-1,0.117419
Green_YC310_Pro_5B88_260928_070005.csv,1,13,29,22,54667.4,0.17867,5.71427e+06,0.542853,33.15,-0.07,0.525,-0.011667,0.0606897,0.472063,-0.00124584,0.527937,0.507055,0.293488,0.279288,0.162697,0.23159,0.317164,0.342784,2026-09-28 07:00:42,170,5.7,0.264286,0,0,63.4111,0.292639,0,0,0.965517,0.0344828,0,0,-1,-1,0.127333
Green_YC310_Pro_5B88_260928_070247.csv,1,14,28,27,59126.2,0.196505,5.82884e+06,0.565767,33.09,-0.06,0.515,-0.01,0.062069,0.495844,0.00137927,0.504156,0.508528,0.314088,0.28076,0.164747,0.228004,0.322024,0.351229,2026-09-28 07:03:22,160,5.7,0.264286,0,0,60.7815,0.259769,0,0,0.896552,0.103448,0,0,-1,-1,0.125714
Green_YC310_Pro_5B88_260928_070529.csv,1,15,33,20,47913.6,0.151655,6.15792e+06,0.631584,33.06,-0.03,0.51,-0.005,0.0629412,0.510882,0.000872176,0.489118,0.508783,0.322828,0.281015,0.166797,0.225995,0.32403,0.355245,2026-09-28 07:06:02,160,5.7,0.264286,0,0,71.1207,0.389009,0,0.0882353,0.676471,0.235294,0,0,-1,-1,0.126429
Green_YC310_Pro_5B88_260928_070810.csv,1,16,31,20,44272.5,0.13709,6.38235e+06,0.676471,33,-0.06,0.5,-0.01,0.0606452,0.471296,-0.00229604,0.528704,0.506194,0.319707,0.278426,0.178678,0.220333,0.324272,0.361149,2026-09-28 07:08:42,160,5.7,0.264286,0,0,66.5712,0.33214,0,0.0322581,0.903226,0.0645161,0,0,-1,-1,0.12
Green_YC310_Pro_5B88_260928_071053.csv,1,17,27,23,59724.9,0.1989,6.50394e+06,0.700788,32.93,-0.07,0.488333,-0.0116667,0.0635714,0.521749,0.00292623,0.478251,0.501368,0.260944,0.2736,0.190558,0.214146,0.318098,0.361162,2026-09-28 07:11:31,169,5.7,0.264286,0,0,59.0379,0.237974,0,0,0.821429,0.178571,0,0,-1,-1,0.132593
Green_YC310_Pro_5B88_260928_071335.csv,1,18,26,25,71006.7,0.244027,6.67606e+06,0.735212,32.86,-0.07,0.476667,-0.0116663,0.0703704,0.638972,0.00679897,0.361028,0.497148,0.271418,0.284074,0.19852,0.208786,0.319103,0.367526,2026-09-28 07:14:09,158,5.7,0.264286,0,0,57.0175,0.212719,0,0,0.481481,0.518519,0,0,-1,-1,0.145926
Green_YC310_Pro_5B88_260928_071617.csv,1,19,28,25,58119.8,0.192479,6.85229e+06,0.770458,32.81,-0.05,0.468333,-0.00833367,0.0613793,0.483954,-0.00899109,0.516046,0.489554,0.281891,0.294547,0.206482,0.204477,0.317551,0.370284,2026-09-28 07:16:49,160,5.7,0.264286,0,0,59.1549,0.239436,0,0.0344828,0.862069,0.103448,0,0,-1,-1,0.126897
Green_YC310_Pro_5B88_260928_071901.csv,1,20,32,13,52234.3,0.168937,7.20392e+06,0.840785,32.77,-0.04,0.461667,-0.00666633,0.063871,0.526913,0.00249167,0.473087,0.48196,0.298526,0.311182,0.191425,0.205555,0.316275,0.36793,2026-09-28 07:19:33,164,5.7,0.264286,0,0,68.0851,0.351064,0,0.0645161,0.677419,0.258065,0,0,-1,-1,0.134615
Green_YC310_Pro_5B88_260928_072143.csv,1,21,29,14,52667.1,0.170668,7.28304e+06,0.856608,32.72,-0.05,0.453333,-0.00833367,0.0653333,0.552126,0.00146233,0.447874,0.474033,0.296523,0.309179,0.176369,0.206107,0.313305,0.364408,2026-09-28 07:22:16,163,5.7,0.264286,0,0,61.0098,0.262622,0,0,0.733333,0.266667,0,0,-1,-1,0.139333
Green_YC310_Pro_5B88_260928_072426.csv,1,22,29,27,55950.3,0.183801,7.45932e+06,0.891864,32.68,-0.04,0.446667,-0.00666633,0.0627586,0.507735,-0.00257468,0.492265,0.467064,0.275883,0.30221,0.170314,0.205284,0.308696,0.360623,2026-09-28 07:24:58,162,5.7,0.264286,0,0,62.3209,0.279011,0,0,0.862069,0.137931,0,0,-1,-1,0.124828
Green_YC310_Pro_5B88_260928_072710.csv,1,23,27,25,71332.6,0.24533,7.53388e+06,0.906776,32.65,-0.03,0.441667,-0.00500033,0.0659259,0.562344,0.00316733,0.437656,0.461052,0.286016,0.312343,0.164258,0.204986,0.307331,0.359555,2026-09-28 07:28:00,182,5.7,0.264286,0,0,57.2034,0.215043,0,0,0.703704,0.296296,0,0,-1,-1,0.134074
Green_YC310_Pro_5B88_260928_072952.csv,1,24,7,11,299659,1,5.56525e+06,0.513049,32.62,-0.03,0.436667,-0.00500033,0.0625,0.503276,-0.0034259,0.496724,0.42984,0.293021,0.319347,0.144715,0.207536,0.291544,0.341217,2026-09-28 07:30:26,146,5.7,0.264286,0,0,59.322,0.241525,0,0,0.875,0.125,0,0,-1,-1,0.128571
Green_YC310_Pro_5B88_260928_073234.csv,1,25,30,18,31055.7,0.0842228,5.45095e+06,0.490189,32.59,-0.03,0.431667,-0.00500033,0.0634483,0.519625,0.000948276,0.480375,0.398627,0.300025,0.326352,0.125172,0.210086,0.275757,0.32288,2026-09-28 07:33:06,160,5.7,0.264286,0,0,62.2837,0.278546,0,0,0.827586,0.172414,0,0,-1,-1,0.125714
Green_YC310_Pro_5B88_260928_073517.csv,1,26,30,18,36407.2,0.105629,5.63824e+06,0.527648,32.57,-0.02,0.428333,-0.00333367,0.07,0.632586,0.0065517,0.367414,0.398344,0.280657,0.326069,0.106992,0.212874,0.274351,0.318687,2026-09-28 07:35:49,163,5.7,0.264286,0,0,64.5624,0.30703,0,0,0.5,0.5,0,0,-1,-1,0.156
Green_YC310_Pro_5B88_260928_073759.csv,1,27,27,24,32543.6,0.0901745,5.78864e+06,0.557727,32.53,-0.04,0.421667,-0.00666633,0.0664286,0.57101,-0.00357143,0.42899,0.404359,0.261289,0.3067,0.111543,0.209811,0.27714,0.324539,2026-09-28 07:38:32,163,5.7,0.264286,0,0,58.6957,0.233696,0,0,0.678571,0.321429,0,0,-1,-1,0.138519
Green_YC310_Pro_5B88_260928_074042.csv,1,28,27,21,41071.4,0.124286,5.97294e+06,0.594588,32.48,-0.05,0.413333,-0.00833367,0.0685714,0.607956,0.00214283,0.392044,0.427008,0.254984,0.300396,0.116094,0.206223,0.290868,0.341854,2026-09-28 07:41:15,163,5.7,0.264286,0,0,57.2438,0.215548,0,0,0.571429,0.428571,0,0,-1,-1,0.137143
Green_YC310_Pro_5B88_260928_074325.csv,1,29,27,25,45503.5,0.142014,5.99779e+06,0.599558,32.43,-0.05,0.405,-0.008333,0.0628571,0.509433,-0.00571426,0.490567,0.45999,0.248679,0.294091,0.128722,0.200929,0.310381,0.366662,2026-09-28 07:43:57,162,5.7,0.264286,0,0,59.6026,0.245033,0,0,0.857143,0.142857,0,0,-1,-1,0.125714
Green_YC310_Pro_5B88_260928_074608.csv,1,30,29,24,42014.6,0.128058,6.20221e+06,0.640442,32.39,-0.04,0.398333,-0.00666667,0.0606897,0.472063,-0.00216744,0.527937,0.486235,0.261117,0.306528,0.136533,0.197178,0.32764,0.387672,2026-09-28 07:46:42,165,5.7,0.264286,0,0,62.5449,0.281811,0,0.0344828,0.896552,0.0689655,0,0,-1,-1,0.121333
Green_YC310_Pro_5B88_260928_074851.csv,1,31,29,26,46945.1,0.14778,6.37731e+06,0.675462,32.37,-0.02,0.395,-0.003333,0.062,0.494655,0.0013103,0.505345,0.512479,0.273554,0.318966,0.139526,0.195494,0.344232,0.405948,2026-09-28 07:49:24,162,5.7,0.264286,0,0,61.6147,0.270184,0,0,0.9,0.1,0,0,-1,-1,0.126
Green_YC310_Pro_5B88_260928_075133.csv,1,32,28,25,47748.7,0.150995,6.61106e+06,0.722212,32.36,-0.01,0.393333,-0.00166667,0.062069,0.495844,6.89655e-05,0.504156,0.484735,0.262061,0.307473,0.115063,0.200135,0.327893,0.384968,2026-09-28 07:52:05,161,5.7,0.264286,0,0,61.4934,0.268668,0,0,0.896552,0.103448,0,0,-1,-1,0.124138
Green_YC310_Pro_5B88_260928_075415.csv,1,33,28,14,42320.9,0.129284,6.88747e+06,0.777493,32.35,-0.01,0.391667,-0.00166633,0.0655172,0.555297,0.00344824,0.444703,0.474521,0.318391,0.363802,0.0905987,0.204775,0.328071,0.380506,2026-09-28 07:54:48,163,6,0.285714,0,0,59.7865,0.247331,0,0,0.724138,0.275862,0,0,-1,-1,0.135862
Green_YC310_Pro_5B88_260928_075700.csv,1,34,41,12,17550.6,0.0302023,6.78367e+06,0.756734,32.29,-0.06,0.381667,-0.0100003,0.0518919,0.320377,-0.0136253,0.679623,0.464307,0.374721,0.420132,0.0828627,0.203256,0.329916,0.38387,2026-09-28 07:57:32,164,6,0.285714,0,0,90.176,0.6272,0,0.405405,0.594595,0,0,0,-1,-1,0.0994444
Green_YC310_Pro_5B88_260928_075942.csv,1,35,38,14,28855.5,0.0754221,7.47267e+06,0.894533,32.23,-0.06,0.371667,-0.0100003,0.0632432,0.51609,0.0113513,0.48391,0.457299,0.370914,0.416325,0.0751268,0.201736,0.327616,0.383089,2026-09-28 08:00:15,163,6.2,0.3,0,0,80.1688,0.50211,0,0.162162,0.540541,0.27027,0.027027,0,-1,-1,0.124138
Green_YC310_Pro_5B88_260928_080225.csv,1,36,27,23,39939,0.119756,7.6421e+06,0.92842,32.17,-0.06,0.361667,-0.0100003,0.07,0.632586,0.0067568,0.367414,0.450292,0.367107,0.412519,0.0833776,0.196841,0.325316,0.385684,2026-09-28 08:02:57,162,6,0.285714,0,0,59.2105,0.240131,0,0,0.5,0.5,0,0,-1,-1,0.142963
Green_YC310_Pro_5B88_260928_080507.csv,1,37,27,23,40742.4,0.12297,7.72918e+06,0.945837,32.19,0.02,0.365,0.003333,0.0671429,0.583325,-0.00285714,0.416675,0.44272,0.274832,0.404946,0.126426,0.188802,0.311294,0.379701,2026-09-28 08:05:38,161,5.7,0.264286,0,0,58.5683,0.232104,0,0,0.642857,0.357143,0,0,-1,-1,0.139286
Green_YC310_Pro_5B88_260928_080749.csv,1,38,27,26,44138.3,0.136553,7.85805e+06,0.97161,32.21,0.02,0.368333,0.00333333,0.0696296,0.626201,0.00248673,0.373799,0.435148,0.275252,0.405366,0.0961419,0.196248,0.306428,0.36739,2026-09-28 08:08:21,163,5.7,0.264286,0,0,58.0229,0.225286,0,0,0.518519,0.481481,0,0,-1,-1,0.136296
Green_YC310_Pro_5B88_260928_081033.csv,1,39,31,9,16361.6,0.0254463,5.15899e+06,0.431798,32.21,0,0.368333,3.33333e-07,0.065,0.546379,-0.0046296,0.453621,0.440527,0.279392,0.409506,0.0723612,0.20127,0.309849,0.365789,2026-09-28 08:11:07,166,5.6,0.257143,0,0,66.0511,0.325639,0,0,0.75,0.25,0,0,-1,-1,0.137333
Green_YC310_Pro_5B88_260928_081315.csv,1,40,28,21,26513.7,0.0660546,5.22157e+06,0.444314,32.2,-0.01,0.366667,-0.00166633,0.0662069,0.567188,0.0012069,0.432812,0.440987,0.263346,0.39346,0.0550844,0.204392,0.308855,0.361672,2026-09-28 08:13:50,163,5.6,0.257143,0,0,59.2802,0.241003,0,0,0.689655,0.310345,0,0,-1,-1,0.137931
Green_YC310_Pro_5B88_260928_081557.csv,1,41,28,26,31180.6,0.0847224,5.46282e+06,0.492564,32.18,-0.02,0.363333,-0.00333367,0.0655172,0.555297,-0.000689659,0.444703,0.435148,0.241675,0.387621,0.0591753,0.202477,0.304111,0.358843,2026-09-28 08:16:29,159,5.6,0.257143,0,0,59.6591,0.245739,0,0,0.724138,0.275862,0,0,-1,-1,0.132143
Green_YC310_Pro_5B88_260928_081840.csv,1,42,33,12,19429.8,0.0377192,5.81187e+06,0.562374,32.16,-0.02,0.36,-0.003333,0.065,0.546379,-0.0005172,0.453621,0.426761,0.262906,0.408852,0.0676126,0.199645,0.302178,0.359743,2026-09-28 08:19:14,165,5.6,0.257143,0,0,71.2743,0.390929,0,0.0625,0.6875,0.1875,0.0625,0,-1,-1,0.1328
Green_YC310_Pro_5B88_260928_082122.csv,1,43,27,26,33407.7,0.0936306,5.9021e+06,0.580419,32.15,-0.01,0.358333,-0.00166667,0.0685714,0.607956,0.00357143,0.392044,0.419237,0.298273,0.444219,0.0803963,0.19642,0.301792,0.362582,2026-09-28 08:21:54,160,5.6,0.257143,0,0,57.8158,0.222698,0,0,0.571429,0.428571,0,0,-1,-1,0.137857
Green_YC310_Pro_5B88_260928_082404.csv,1,44,30,15,37459.8,0.109839,5.96353e+06,0.592706,32.13,-0.02,0.355,-0.003333,0.0586207,0.436391,-0.00995071,0.563609,0.413745,0.308042,0.453988,0.119004,0.187216,0.300348,0.370341,2026-09-28 08:24:38,164,5.6,0.257143,0,0,62.7178,0.283972,0,0.103448,0.862069,0.0344828,0,0,-1,-1,0.1176
Green_YC310_Pro_5B88_260928_082647.csv,1,45,28,3,48385.3,0.153541,6.4995e+06,0.6999,32.11,-0.02,0.351667,-0.00333333,0.068,0.598103,0.0093793,0.401897,0.410772,0.302198,0.451015,0.113168,0.187398,0.298773,0.368585,2026-09-28 08:27:21,163,5.6,0.257143,0,0,66.1417,0.326771,0,0.05,0.55,0.35,0.05,0,-1,-1,0.13375
Green_YC310_Pro_5B88_260928_082928.csv,1,46,29,13,36313.4,0.105253,6.35911e+06,0.671823,32.09,-0.02,0.348333,-0.00333367,0.0671429,0.583325,-0.000857143,0.416675,0.397792,0.289914,0.438732,0.107333,0.187579,0.290957,0.360588,2026-09-28 08:30:00,159,5.6,0.257143,0,0,61.7021,0.271276,0,0,0.642857,0.357143,0,0,-1,-1,0.14
Green_YC310_Pro_5B88_260928_083210.csv,1,47,29,14,25281.1,0.0611242,6.86025e+06,0.772049,32.06,-0.03,0.343333,-0.00499967,0.0706667,0.64408,0.00352377,0.35592,0.387359,0.278509,0.428299,0.0859524,0.190517,0.284988,0.35168,2026-09-28 08:32:43,163,5.6,0.257143,0,0,63.2267,0.290334,0,0,0.566667,0.333333,0.1,0,-1,-1,0.145385
Green_YC310_Pro_5B88_260928_083453.csv,1,48,28,6,32350.1,0.0894005,6.61028e+06,0.722055,32.03,-0.03,0.338333,-0.00499967,0.0668966,0.579078,-0.00377015,0.420922,0.385015,0.273916,0.425955,0.0724286,0.191796,0.284222,0.349635,2026-09-28 08:35:26,163,5.6,0.257143,0,0,61.674,0.270925,0,0,0.655172,0.344828,0,0,-1,-1,0.14
Green_YC310_Pro_5B88_260928_083736.csv,1,49,29,10,22447.3,0.0497891,7.22997e+06,0.845995,32,-0.03,0.333333,-0.00499967,0.07,0.632586,0.0031034,0.367414,0.378204,0.249794,0.419143,0.0790157,0.188829,0.279024,0.347405,2026-09-28 08:38:09,163,5.6,0.257143,0,0,60.8392,0.26049,0,0.0333333,0.433333,0.533333,0,0,-1,-1,0.1536
Green_YC310_Pro_5B88_260928_084018.csv,1,50,26,24,39086.6,0.116346,7.15945e+06,0.83189,31.97,-0.03,0.328333,-0.00499967,0.0718519,0.664515,0.00185185,0.335485,0.378204,0.246414,0.415764,0.0978576,0.183274,0.27969,0.353626,2026-09-28 08:40:50,161,5.6,0.257143,0,0,57.4374,0.217967,0,0,0.407407,0.592593,0,0,-1,-1,0.148148
Green_YC310_Pro_5B88_260928_084300.csv,1,51,28,18,46481.5,0.145926,7.16319e+06,0.832639,31.95,-0.02,0.325,-0.003333,0.0668966,0.579078,-0.00495535,0.420922,0.387984,0.243035,0.412384,0.112977,0.17903,0.2855,0.36368,2026-09-28 08:43:32,162,5.6,0.257143,0,0,59.4901,0.243626,0,0,0.655172,0.344828,0,0,-1,-1,0.142857
Green_YC310_Pro_5B88_260928_084542.csv,1,52,27,13,28111.9,0.0724476,7.76113e+06,0.952226,31.92,-0.03,0.32,-0.005,0.0740741,0.702829,0.00717747,0.297171,0.407545,0.26751,0.431945,0.128097,0.174261,0.299872,0.382821,2026-09-28 08:46:14,162,5.6,0.257143,0,0,56.7227,0.209034,0,0,0.296296,0.703704,0,0,-1,-1,0.159259
Green_YC310_Pro_5B88_260928_084824.csv,1,53,2,1,845022,1,5.19327e+06,0.438653,31.88,-0.04,0.313333,-0.00666667,0.06,0.460172,-0.0140741,0.539828,0.394168,0.291394,0.455829,0.110268,0.175924,0.296074,0.37736,2026-09-28 08:48:58,164,5.6,0.257143,0,0,39.4737,0,0,0,1,0,0,0,-1,-1,0.18
Green_YC310_Pro_5B88_260928_085107.csv,1,54,31,12,42588.2,0.130353,5.07664e+06,0.415328,31.84,-0.04,0.306667,-0.00666633,0.0675,0.589483,0.0075,0.410517,0.380791,0.315278,0.479712,0.0924393,0.177587,0.292275,0.371898,2026-09-28 08:51:40,162,5.6,0.257143,0,0,66.5712,0.33214,0,0.03125,0.5625,0.40625,0,0,-1,-1,0.136667
Green_YC310_Pro_5B88_260928_085349.csv,1,55,32,22,28652.6,0.0746104,5.30088e+06,0.460176,31.9,0.06,0.316667,0.00999967,0.07,0.632586,0.0025,0.367414,0.379491,0.350084,0.514519,0.085975,0.182105,0.292985,0.36809,2026-09-28 08:54:21,161,5.6,0.257143,0,0,67.1329,0.339161,0,0,0.53125,0.4375,0.03125,0,-1,-1,0.136129
Green_YC310_Pro_5B88_260928_085632.csv,1,56,37,3,32718.8,0.0908753,5.73333e+06,0.546665,31.98,0.08,0.33,0.013333,0.0657143,0.558695,-0.00428571,0.441305,0.37819,0.395814,0.560249,0.0777725,0.188041,0.294108,0.363277,2026-09-28 08:57:06,165,5.6,0.257143,0,0,79.9712,0.49964,0,0.0952381,0.619048,0.190476,0.0952381,0,-1,-1,0.14
Green_YC310_Pro_5B88_260928_085915.csv,1,57,35,9,23682.2,0.054729,5.801e+06,0.560201,31.96,-0.02,0.326667,-0.00333333,0.06875,0.611034,0.0030357,0.388966,0.388966,0.452468,0.571025,0.054729,0.191856,0.306405,0.371759,2026-09-28 09:00:00,174,5.6,0.257143,0,0,76.1974,0.452468,0,0,0.5625,0.4375,0,0,-1,-1,0.139412
