Sheet Name,Segment,Index,total_beat_count,Sel_Min,diff,diff_n,mean,mean_n,temp,temp_raw_diff,temp_n,temp_diff,rise_low,rise_low_n,rise_low_diff,rise_low_n_inv,rise_low_n_inv_center,HR_n_center,HR_n_center_lim,diff_n_center,diff_anker,rl_inv_corr,inv_corr,datetime,time_gap_seconds,CGM,CGM_n,SMBG,SMBG_n,HR,HR_n,r20,r40,r60,r80,r100,time_gap_state,time_gap_slot,time_gap_offset_s,rise_low_50
Green_YC310_Pro_5B88_260930_135524.csv,1,1,48,16,13096.2,0.0123847,4.32823e+06,0.265645,33.4,0,0.566667,0,0.0405787,0.125323,0,0.874677,0.874677,0.742236,0.742236,0.0123847,0.276468,0.264981,0.242857,2026-09-30 13:55:24,0,5.3,0.235714,5.4,0.242857,99.3789,0.742236,0.0666667,0.488889,0.444444,0,0,0,-1,-1,0.0935294
Green_YC310_Pro_5B88_260930_135725.csv,1,2,42,8,19518.9,0.0380755,4.41526e+06,0.283052,33.34,-0.06,0.556667,-0.0100003,0.0440203,0.18466,0.00344159,0.81534,0.83085,0.654191,0.69841,0.0289999,0.269806,0.261922,0.239798,2026-09-30 13:57:25,121,5.3,0.235714,0,0,88.7949,0.609936,0,0.351351,0.648649,0,0,0,-1,-1,0.105185
Green_YC310_Pro_5B88_260930_135924.csv,1,3,44,16,16866,0.027464,5.08423e+06,0.416847,33.25,-0.09,0.541667,-0.0150003,0.0438634,0.181956,-0.000156859,0.818044,0.795819,0.59286,0.663378,0.0457578,0.261538,0.257333,0.235209,2026-09-30 13:59:24,119,5.3,0.235714,0,0,92.3723,0.654654,0.025,0.425,0.525,0.025,0,0,-1,-1,0.0947059
Green_YC310_Pro_5B88_260930_140125.csv,1,4,40,9,30394,0.0815759,5.2178e+06,0.44356,33.16,-0.09,0.526667,-0.0150003,0.0488627,0.268151,0.00499933,0.731849,0.77027,0.513989,0.63783,0.071734,0.251324,0.252745,0.230621,2026-09-30 14:01:25,121,5.3,0.235714,0,0,86.0215,0.575269,0.03125,0.3125,0.53125,0.0625,0.0625,0,-1,-1,0.1
Green_YC310_Pro_5B88_260930_140324.csv,1,5,33,3,39001,0.116004,5.23838e+06,0.447676,33.11,-0.05,0.518333,-0.00833367,0.0481907,0.256563,-0.000672031,0.743437,0.760918,0.505273,0.629114,0.0887153,0.24511,0.250196,0.228072,2026-09-30 14:03:24,119,5.6,0.257143,0,0,69.8659,0.373324,0,0.269231,0.692308,0.0384615,0,0,-1,-1,0.0984615
Green_YC310_Pro_5B88_260930_140524.csv,1,6,40,11,29602,0.078408,5.46357e+06,0.492713,33.13,0.02,0.521667,0.00333367,0.0454907,0.210013,-0.00269996,0.789987,0.761407,0.496557,0.620398,0.0899319,0.245904,0.251215,0.229091,2026-09-30 14:05:24,120,6.1,0.292857,0,0,87.146,0.589325,0,0.342857,0.628571,0.0285714,0,0,-1,-1,0.1
Green_YC310_Pro_5B88_260930_140724.csv,1,7,43,25,31726.9,0.0869077,5.58909e+06,0.517818,33.17,0.04,0.528333,0.00666633,0.0465982,0.229107,0.00110753,0.770893,0.761896,0.592773,0.620888,0.0785132,0.250418,0.253255,0.231131,2026-09-30 14:07:24,120,5.9,0.278571,0,0,89.5833,0.619791,0,0.409091,0.590909,0,0,0,-1,-1,0.1
Green_YC310_Pro_5B88_260930_140926.csv,1,8,44,14,25457.3,0.0618294,5.55528e+06,0.511056,33.22,0.05,0.536667,0.00833367,0.0487493,0.266194,0.00215106,0.733806,0.760021,0.60511,0.633225,0.071773,0.254468,0.246878,0.224754,2026-09-30 14:09:26,122,5.8,0.271429,0,0,92.9577,0.661971,0,0.289474,0.684211,0.0263158,0,0,-1,-1,0.100571
Green_YC310_Pro_5B88_260930_141124.csv,1,9,41,12,25538.9,0.0621557,4.73524e+06,0.347047,33.28,0.06,0.546667,0.00999967,0.0458171,0.21564,-0.00293219,0.78436,0.764898,0.617447,0.638102,0.0665818,0.258718,0.24295,0.220826,2026-09-30 14:11:24,118,5.8,0.271429,0,0,88.6167,0.607709,0.0285714,0.342857,0.542857,0.0857143,0,0,-1,-1,0.1125
Green_YC310_Pro_5B88_260930_141324.csv,1,10,41,7,27833.6,0.0713343,4.94802e+06,0.389605,33.31,0.03,0.551667,0.00499967,0.0474001,0.242933,0.00158302,0.757067,0.769553,0.591548,0.612203,0.0680272,0.259989,0.238742,0.216618,2026-09-30 14:13:24,120,5.9,0.278571,0,0,85.8339,0.572924,0,0.277778,0.722222,0,0,0,-1,-1,0.10125
Green_YC310_Pro_5B88_260930_141524.csv,1,11,41,7,26541.4,0.0661654,4.71563e+06,0.343126,33.42,0.11,0.57,0.018333,0.0470703,0.237247,-0.000329774,0.762753,0.767231,0.5693,0.609881,0.0911853,0.260879,0.220358,0.198234,2026-09-30 14:15:24,120,6.2,0.3,0,0,86.7419,0.584274,0,0.432432,0.486486,0.0540541,0.027027,0,-1,-1,0.0851613
Green_YC310_Pro_5B88_260930_141725.csv,1,12,39,5,35613.5,0.102454,5.52362e+06,0.504723,33.41,-0.01,0.568333,-0.00166667,0.0462212,0.222606,-0.00084915,0.777394,0.743232,0.550702,0.591283,0.136056,0.250878,0.205231,0.183107,2026-09-30 14:17:25,121,6.1,0.292857,0,0,83.9311,0.549139,0,0.424242,0.454545,0.121212,0,0,-1,-1,0.0956522
Green_YC310_Pro_5B88_260930_141925.csv,1,13,38,7,61486.9,0.205947,4.85859e+06,0.371719,33.43,0.02,0.571667,0.00333367,0.0515758,0.314928,0.00535462,0.685072,0.74638,0.55744,0.594431,0.15815,0.247264,0.205059,0.182935,2026-09-30 14:19:25,120,5.8,0.271429,0,0,81.3704,0.51713,0,0.36,0.4,0.16,0.08,0,-1,-1,0.0833333
Green_YC310_Pro_5B88_260930_142125.csv,1,14,42,15,43112,0.132448,5.92265e+06,0.584531,33.46,0.03,0.576667,0.00499967,0.042707,0.162017,-0.00886882,0.837983,0.774645,0.553568,0.590559,0.181003,0.244015,0.216467,0.194343,2026-09-30 14:21:25,120,6,0.285714,0,0,88.359,0.604487,0.0263158,0.578947,0.394737,0,0,0,-1,-1,0.0842424
Green_YC310_Pro_5B88_260930_142326.csv,1,15,36,1,73292.7,0.253171,4.69704e+06,0.339408,33.51,0.05,0.585,0.008333,0.0485325,0.262457,0.00582549,0.737543,0.769085,0.539086,0.584999,0.188604,0.245037,0.205113,0.182989,2026-09-30 14:23:26,121,6.1,0.292857,0,0,78.7746,0.484683,0.1,0.3,0.45,0.1,0.05,0,-1,-1,0.185455
Green_YC310_Pro_5B88_260930_142523.csv,1,16,37,2,38906.2,0.115625,4.41187e+06,0.282373,33.56,0.05,0.593333,0.00833333,0.0470402,0.236728,-0.00149229,0.763272,0.729539,0.508281,0.554194,0.168228,0.251967,0.172953,0.150829,2026-09-30 14:25:23,117,5.9,0.278571,0,0,77.8947,0.473684,0.0344828,0.310345,0.586207,0.0344828,0.0344828,0,-1,-1,0.0941176
Green_YC310_Pro_5B88_260930_142726.csv,1,17,38,3,57122.5,0.18849,4.59611e+06,0.319221,33.54,-0.02,0.59,-0.003333,0.0533739,0.34593,0.00633373,0.65407,0.704551,0.494773,0.540686,0.140935,0.25668,0.158159,0.136035,2026-09-30 14:27:26,123,5.9,0.278571,0,0,80.9659,0.512074,0,0.375,0.416667,0.0833333,0.125,0,-1,-1,0.0853333
Green_YC310_Pro_5B88_260930_142925.csv,1,18,37,2,43457.6,0.13383,4.42445e+06,0.284891,33.5,-0.04,0.583333,-0.00666667,0.047996,0.253206,-0.00537795,0.746794,0.705963,0.533457,0.542097,0.11869,0.259275,0.164486,0.142362,2026-09-30 14:29:25,119,5.8,0.271429,0,0,78.5007,0.481259,0,0.318182,0.5,0.181818,0,0,-1,-1,0.122857
Green_YC310_Pro_5B88_260930_143129.csv,1,19,43,9,22222.6,0.0488902,5.08343e+06,0.416685,33.46,-0.04,0.576667,-0.00666633,0.0486563,0.264591,0.00066026,0.735409,0.717024,0.582339,0.553159,0.112006,0.258584,0.177326,0.155202,2026-09-30 14:31:29,124,5.9,0.278571,0,0,92.739,0.659238,0,0.264706,0.705882,0.0294118,0,0,-1,-1,0.105385
Green_YC310_Pro_5B88_260930_143324.csv,1,20,38,11,42354.2,0.129417,5.14416e+06,0.428832,33.48,0.02,0.58,0.003333,0.0514492,0.312745,0.00279292,0.687255,0.727761,0.567094,0.537914,0.105322,0.261047,0.179015,0.156891,2026-09-30 14:33:24,115,5.9,0.278571,0,0,82.3699,0.529624,0,0.346154,0.461538,0.192308,0,0,-1,-1,0.100952
Green_YC310_Pro_5B88_260930_143524.csv,1,21,39,6,44415,0.13766,5.15243e+06,0.430486,33.52,0.04,0.586667,0.00666667,0.045606,0.212001,-0.00584316,0.787999,0.738498,0.52908,0.499899,0.163196,0.250928,0.175564,0.15344,2026-09-30 14:35:24,120,6.2,0.3,0,0,83.9914,0.549893,0.0322581,0.322581,0.612903,0.0322581,0,0,-1,-1,0.0990476
Green_YC310_Pro_5B88_260930_143725.csv,1,22,37,6,65628.1,0.222512,5.38598e+06,0.477196,33.57,0.05,0.595,0.008333,0.045505,0.210258,-0.000101018,0.789742,0.756261,0.507723,0.478543,0.142432,0.25794,0.176523,0.154399,2026-09-30 14:37:25,121,6.2,0.3,0,0,80.0288,0.50036,0.04,0.4,0.48,0.08,0,0,-1,-1,0.08
Green_YC310_Pro_5B88_260930_143926.csv,1,23,37,7,45471.8,0.141887,4.4742e+06,0.294841,33.65,0.08,0.608333,0.0133333,0.0483586,0.259459,0.00285364,0.740541,0.773943,0.546311,0.496225,0.121668,0.266528,0.179952,0.157828,2026-09-30 14:39:26,121,6.3,0.307143,0,0,77.2443,0.465554,0,0.266667,0.633333,0.0666667,0.0333333,0,-1,-1,0.100952
Green_YC310_Pro_5B88_260930_144123.csv,1,24,41,20,15205.9,0.0208235,3.94606e+06,0.189212,33.6,-0.05,0.6,-0.008333,0.0434631,0.175053,-0.00489553,0.824947,0.784896,0.558764,0.507178,0.139292,0.260179,0.189105,0.166981,2026-09-30 14:41:23,117,6.3,0.307143,0,0,93.2525,0.665656,0,0.578947,0.421053,0,0,0,-1,-1,0.0832432
Green_YC310_Pro_5B88_260930_144324.csv,1,25,34,2,78846.4,0.275386,4.51483e+06,0.302966,33.35,-0.25,0.558333,-0.0416667,0.0478593,0.250851,0.00439623,0.749149,0.796507,0.537762,0.486176,0.162273,0.242189,0.201658,0.179534,2026-09-30 14:43:24,121,6.3,0.307143,0,0,75.0552,0.43819,0.0416667,0.333333,0.5,0.125,0,0,-1,-1,0.12
Green_YC310_Pro_5B88_260930_144526.csv,1,26,45,5,29373.9,0.0774955,4.74503e+06,0.349005,33.51,0.16,0.585,0.026667,0.0412687,0.137219,-0.0065906,0.862781,0.811699,0.509441,0.457855,0.164424,0.250143,0.185755,0.163631,2026-09-30 14:45:26,122,6.3,0.307143,0,0,98.3248,0.72906,0.0512821,0.564103,0.358974,0.025641,0,0,-1,-1,0.0821429
Green_YC310_Pro_5B88_260930_144725.csv,1,27,40,3,66829.9,0.22732,5.0138e+06,0.402761,33.64,0.13,0.606667,0.0216667,0.0465291,0.227915,0.00526037,0.772085,0.81805,0.619069,0.464206,0.153886,0.2592,0.183892,0.161768,2026-09-30 14:47:25,119,6.3,0.307143,0,0,86.4553,0.580691,0.1,0.233333,0.533333,0.133333,0,0,-1,-1,0.09875
Green_YC310_Pro_5B88_260930_144924.csv,1,28,47,4,30852,0.0834081,5.14213e+06,0.428426,33.7,0.06,0.616667,0.00999967,0.0411255,0.13475,-0.00540362,0.86525,0.828545,0.659105,0.474701,0.140622,0.265154,0.186119,0.163995,2026-09-30 14:49:24,119,6.3,0.307143,0,0,101.366,0.767075,0.0294118,0.558824,0.352941,0.0588235,0,0,-1,-1,0.0693333
Green_YC310_Pro_5B88_260930_145125.csv,1,29,31,7,67210.4,0.228841,5.30576e+06,0.461151,33.77,0.07,0.628333,0.0116663,0.0506096,0.298269,0.00948411,0.701731,0.8483,0.699141,0.494455,0.111137,0.275058,0.192199,0.170075,2026-09-30 14:51:25,121,6.3,0.307143,0,0,67.3425,0.341781,0.047619,0.285714,0.428571,0.190476,0.047619,0,-1,-1,0.156667
Green_YC310_Pro_5B88_260930_145330.csv,1,30,12,17,945662,1,4.03658e+06,0.207317,33.67,-0.1,0.611667,-0.0166663,0.0501052,0.289573,-0.000504359,0.710427,0.831349,0.631206,0.477505,0.138866,0.263948,0.178658,0.156534,2026-09-30 14:53:30,125,6.3,0.307143,0,0,46.0358,0.0754475,0,0.25,0.5,0.25,0,0,-1,-1,0.08
Green_YC310_Pro_5B88_260930_145526.csv,1,31,33,1,63464,0.213856,5.10783e+06,0.421565,33.52,-0.15,0.586667,-0.0250003,0.0528521,0.336933,0.00274689,0.663067,0.814399,0.563272,0.460555,0.166594,0.25021,0.166784,0.14466,2026-09-30 14:55:26,116,6.3,0.307143,0,0,71.223,0.390288,0,0.222222,0.555556,0.0555556,0.166667,0,-1,-1,0.1025
Green_YC310_Pro_5B88_260930_145724.csv,1,32,37,4,58580.7,0.194323,5.54086e+06,0.508172,33.44,-0.08,0.573333,-0.0133337,0.0450579,0.202551,-0.00779415,0.797449,0.797449,0.495337,0.443605,0.194323,0.240151,0.152576,0.130452,2026-09-30 14:57:24,118,6.3,0.307143,0,0,79.627,0.495337,0,0.590909,0.272727,0.0454545,0.0909091,0,-1,-1,0.066
