Sheet Name,Segment,Index,total_beat_count,Sel_Min,diff,diff_n,mean,mean_n,temp,temp_raw_diff,temp_n,temp_diff,rise_low,rise_low_n,rise_low_diff,rise_low_n_inv,rise_low_n_inv_center,HR_n_center,HR_n_center_lim,diff_n_center,diff_anker,rl_inv_corr,inv_corr,datetime,time_gap_seconds,CGM,CGM_n,SMBG,SMBG_n,HR,HR_n,r20,r40,r60,r80,r100,time_gap_state,time_gap_slot,time_gap_offset_s,rise_low_50
Green_YC310_Pro_5B88_260929_080447.csv,1,1,38,7,27992.6,0.0719704,4.83335e+06,0.36667,34.21,0,0.701667,0,0.0563636,0.397476,0,0.602524,0.602524,0.533357,0.533357,0.0719704,0.30645,0.334409,0.328571,2026-09-29 08:04:47,0,5.9,0.278571,6.6,0.328571,82.6686,0.533357,0,0.272727,0.666667,0.030303,0.030303,1,0,0,0.1025
Green_YC310_Pro_5B88_260929_080707.csv,1,2,39,20,35698.1,0.102793,5.34867e+06,0.469733,34.15,-0.06,0.691667,-0.0100003,0.0555,0.382586,-0.0008636,0.617414,0.621085,0.517359,0.517359,0.100023,0.297374,0.336394,0.339633,2026-09-29 08:07:07,140,5.9,0.278571,0,0,82.2207,0.527759,0,0.225,0.775,0,0,1,1,0,0.111176
Green_YC310_Pro_5B88_260929_080925.csv,1,3,38,17,41326.5,0.125306,5.35198e+06,0.470396,34.21,0.06,0.701667,0.00999967,0.0542105,0.360354,-0.00128947,0.639646,0.607805,0.487592,0.504079,0.119437,0.296427,0.334409,0.338594,2026-09-29 08:09:25,138,6,0.285714,0,0,79.2768,0.49096,0,0.368421,0.552632,0.0789474,0,1,2,0,0.107273
Green_YC310_Pro_5B88_260929_081144.csv,1,4,36,15,42553.2,0.130213,5.34785e+06,0.469571,34.28,0.07,0.713333,0.0116663,0.0571429,0.410911,0.00293236,0.589089,0.594526,0.455289,0.4908,0.110617,0.301968,0.333046,0.33169,2026-09-29 08:11:44,139,6,0.285714,0,0,75.5245,0.444056,0,0.228571,0.685714,0.0857143,0,1,3,0,0.106667
Green_YC310_Pro_5B88_260929_081404.csv,1,5,35,24,30550.4,0.0822015,5.12985e+06,0.425969,34.31,0.03,0.718333,0.00500033,0.0594444,0.450594,0.00230154,0.549406,0.583551,0.427676,0.479825,0.0959969,0.306632,0.333176,0.327157,2026-09-29 08:14:04,140,6,0.285714,0,0,74.4681,0.430851,0,0.0833333,0.861111,0.0555556,0,1,4,0,0.116
Green_YC310_Pro_5B88_260929_081624.csv,1,6,34,20,32342.9,0.0893717,5.14724e+06,0.429448,34.34,0.03,0.723333,0.00500033,0.0588571,0.440468,-0.000587257,0.559532,0.572576,0.438556,0.490705,0.0848114,0.31057,0.319491,0.309534,2026-09-29 08:16:24,140,6,0.285714,0,0,72.6496,0.40812,0,0.171429,0.742857,0.0571429,0.0285714,1,5,0,0.115294
Green_YC310_Pro_5B88_260929_081910.csv,1,7,37,19,29575.2,0.0783008,4.95183e+06,0.390366,34.29,-0.05,0.715,-0.008333,0.0567568,0.404254,-0.00210034,0.595746,0.581342,0.444429,0.496577,0.0899616,0.306855,0.326063,0.319821,2026-09-29 08:19:10,166,6,0.285714,0,0,78.3898,0.479872,0,0.189189,0.783784,0.027027,0,1,6,30,0.11931
Green_YC310_Pro_5B88_260929_082130.csv,1,8,36,19,38468.2,0.113873,5.36018e+06,0.472037,34.29,0,0.715,-1.11022e-16,0.0569697,0.407926,0.000212897,0.592074,0.590109,0.445293,0.497442,0.0979665,0.305165,0.332766,0.328214,2026-09-29 08:21:30,140,6,0.285714,0,0,76.9779,0.462224,0,0.181818,0.787879,0.030303,0,1,7,30,0.109655
Green_YC310_Pro_5B88_260929_082349.csv,1,9,34,21,31454.8,0.0858193,5.26528e+06,0.453056,34.3,0.01,0.716667,0.00166667,0.0635294,0.521024,0.00655971,0.478976,0.588885,0.448581,0.50073,0.105877,0.30402,0.330274,0.326867,2026-09-29 08:23:49,139,6,0.285714,0,0,72.8571,0.410714,0,0.147059,0.617647,0.147059,0.0882353,1,8,30,0.1192
Green_YC310_Pro_5B88_260929_082608.csv,1,10,36,13,46547.9,0.146192,5.30906e+06,0.461812,34.33,0.03,0.721667,0.00499967,0.0629412,0.510882,-0.000588224,0.489118,0.584296,0.441828,0.496141,0.11794,0.303049,0.328026,0.325589,2026-09-29 08:26:08,139,6,0.285714,0,0,79.1789,0.489736,0,0.176471,0.529412,0.264706,0.0294118,1,9,30,0.119048
Green_YC310_Pro_5B88_260929_082826.csv,1,11,35,30,47515.2,0.150061,5.41618e+06,0.483236,34.34,0.01,0.723333,0.00166633,0.0583333,0.431437,-0.00460787,0.568563,0.580318,0.425035,0.492163,0.130635,0.300894,0.330538,0.330257,2026-09-29 08:28:26,138,6.1,0.292857,0,0,72.8155,0.410194,0,0.111111,0.861111,0.0277778,0,1,10,30,0.110909
Green_YC310_Pro_5B88_260929_083048.csv,1,12,33,28,40976.3,0.123905,5.57137e+06,0.514274,34.37,0.03,0.728333,0.00500033,0.0569697,0.407926,-0.0013636,0.592074,0.581477,0.372503,0.439631,0.14182,0.300108,0.349319,0.349824,2026-09-29 08:30:48,142,6.1,0.292857,0,0,70.0141,0.375176,0,0.151515,0.848485,0,0,1,11,30,0.114194
Green_YC310_Pro_5B88_260929_083335.csv,1,13,31,27,52352.2,0.169409,5.57974e+06,0.515947,34.39,0.02,0.731667,0.00333367,0.0580645,0.426802,0.00109482,0.573198,0.591742,0.382923,0.449896,0.143121,0.300885,0.353125,0.352853,2026-09-29 08:33:35,167,6.1,0.292857,0,0,66.5712,0.33214,0,0.0967742,0.903226,0,0,1,12,60,0.115484
Green_YC310_Pro_5B88_260929_083554.csv,1,14,35,26,46102,0.144408,5.56465e+06,0.51293,34.39,0,0.731667,-3.33333e-07,0.0548571,0.371502,-0.00320736,0.628498,0.600371,0.393343,0.458525,0.136047,0.302378,0.356288,0.354523,2026-09-29 08:35:54,139,6.1,0.292857,0,0,73.324,0.41655,0,0.257143,0.742857,0,0,1,13,60,0.108235
Green_YC310_Pro_5B88_260929_083815.csv,1,15,35,12,35671.6,0.102686,5.70661e+06,0.541323,34.38,-0.01,0.73,-0.001667,0.0555556,0.383544,0.000698456,0.616456,0.611097,0.419181,0.469251,0.127427,0.303673,0.355929,0.352868,2026-09-29 08:38:15,141,6.1,0.292857,0,0,76.3636,0.454545,0,0.222222,0.777778,0,0,1,14,60,0.114706
Green_YC310_Pro_5B88_260929_084032.csv,1,16,35,12,38773.1,0.115092,5.71165e+06,0.542329,34.34,-0.04,0.723333,-0.00666667,0.0522581,0.326691,-0.00329754,0.673309,0.624286,0.44502,0.48244,0.118806,0.303392,0.358539,0.355761,2026-09-29 08:40:32,137,6.1,0.292857,0,0,75.8123,0.447654,0.0322581,0.322581,0.645161,0,0,1,15,60,0.104286
Green_YC310_Pro_5B88_260929_084251.csv,1,17,35,22,43731.7,0.134927,5.77675e+06,0.55535,34.27,-0.07,0.711667,-0.0116663,0.0577143,0.420764,0.00545619,0.579236,0.619996,0.448038,0.485458,0.124563,0.298498,0.356357,0.358473,2026-09-29 08:42:51,139,6.1,0.292857,0,0,74.8396,0.435495,0,0.171429,0.771429,0.0571429,0,1,16,60,0.115484
Green_YC310_Pro_5B88_260929_084510.csv,1,18,36,15,43225.4,0.132902,5.76929e+06,0.553858,34.23,-0.04,0.705,-0.006667,0.0537143,0.351798,-0.00400001,0.648202,0.608576,0.445242,0.482662,0.13032,0.29518,0.349558,0.354991,2026-09-29 08:45:10,139,6.1,0.292857,0,0,77.0878,0.463597,0.0571429,0.371429,0.428571,0.114286,0.0285714,1,17,60,0.101111
Green_YC310_Pro_5B88_260929_084732.csv,1,19,41,17,40783.1,0.123132,5.73295e+06,0.54659,34.2,-0.03,0.7,-0.005,0.06,0.460172,0.0062857,0.539828,0.598289,0.434408,0.472376,0.123061,0.295136,0.343631,0.349107,2026-09-29 08:47:32,142,6.1,0.292857,0,0,87.234,0.590425,0,0.214286,0.619048,0.119048,0.047619,2,18,60,0.117931
Green_YC310_Pro_5B88_260929_084948.csv,1,20,33,15,40088.6,0.120355,5.70934e+06,0.541867,34.17,-0.03,0.695,-0.005,0.0605882,0.470314,0.000588235,0.529686,0.601427,0.423575,0.461542,0.118227,0.294581,0.345222,0.351254,2026-09-29 08:49:48,136,6,0.285714,0,0,72.5275,0.406594,0,0.147059,0.676471,0.176471,0,2,19,60,0.11871
Green_YC310_Pro_5B88_260929_085208.csv,1,21,34,24,37798.9,0.111195,5.80578e+06,0.561157,34.15,-0.02,0.691667,-0.00333333,0.0582857,0.430616,-0.00230249,0.569384,0.604566,0.412742,0.450709,0.127885,0.29149,0.34648,0.355602,2026-09-29 08:52:08,140,5.9,0.278571,0,0,72.0848,0.40106,0,0.228571,0.628571,0.142857,0,2,20,60,0.106667
Green_YC310_Pro_5B88_260929_085425.csv,1,22,34,7,48558.3,0.154233,5.8104e+06,0.56208,34.14,-0.01,0.69,-0.001667,0.0652941,0.55145,0.00700842,0.44855,0.601716,0.407816,0.447859,0.127607,0.291023,0.344687,0.354276,2026-09-29 08:54:25,137,5.9,0.278571,0,0,72.9092,0.411365,0,0.117647,0.617647,0.147059,0.117647,2,21,60,0.120769
Green_YC310_Pro_5B88_260929_085645.csv,1,23,34,27,32691.4,0.0907656,5.72669e+06,0.545338,34.15,0.01,0.691667,0.00166667,0.06,0.460172,-0.0052941,0.539828,0.600797,0.431161,0.471204,0.127534,0.291564,0.346352,0.355401,2026-09-29 08:56:45,140,5.9,0.278571,0,0,72.5979,0.407474,0,0.0857143,0.828571,0.0857143,0,2,22,60,0.121212
Green_YC310_Pro_5B88_260929_085904.csv,1,24,38,18,36816.1,0.107264,5.76764e+06,0.553528,34.11,-0.04,0.685,-0.006667,0.0558824,0.389178,-0.00411765,0.610822,0.601807,0.474643,0.472214,0.137604,0.287336,0.352933,0.36621,2026-09-29 08:59:04,139,5.9,0.278571,0,0,79.8879,0.498599,0.0294118,0.205882,0.705882,0.0588235,0,2,23,60,0.114667
Green_YC310_Pro_5B88_260929_090123.csv,1,25,38,5,56110.5,0.184442,5.91572e+06,0.583145,34.08,-0.03,0.68,-0.005,0.0533333,0.34523,-0.00254907,0.65477,0.648405,0.554698,0.518812,0.117148,0.290079,0.388648,0.399182,2026-09-29 09:01:23,139,5.9,0.278571,0,0,81.4286,0.517858,0.0416667,0.458333,0.291667,0.208333,0,2,24,60,0.08
Green_YC310_Pro_5B88_260929_091517.csv,1,26,42,16,21917.6,0.0476704,5.56834e+06,0.513669,33.19,-0.89,0.531667,-0.148333,0.0518919,0.320377,-0.00144141,0.679623,0.685085,0.613592,0.555492,0.0966932,0.24763,0.445197,0.49818,2026-09-29 09:15:17,834,6.1,0.292857,0,0,89.6797,0.620996,0,0.405405,0.594595,0,0,2,30,60,0.0964706
Green_YC310_Pro_5B88_260929_091738.csv,1,27,45,14,12236.1,0.00894438,5.58466e+06,0.516932,33.25,0.06,0.541667,0.00999967,0.0495,0.279138,-0.0023919,0.720862,0.644078,0.654628,0.596529,0.0678091,0.256882,0.424651,0.468382,2026-09-29 09:17:38,141,5.9,0.278571,0,0,96.1538,0.701923,0,0.525,0.475,0,0,2,31,60,0.0988235
Green_YC310_Pro_5B88_260929_091955.csv,1,28,43,15,19912.9,0.0396516,5.55146e+06,0.510291,33.52,0.27,0.586667,0.0449997,0.0482051,0.256813,-0.00129487,0.743187,0.727729,0.695664,0.637565,0.038925,0.277169,0.466914,0.490357,2026-09-29 09:19:55,137,5.9,0.278571,0,0,91.8803,0.648504,0.025641,0.538462,0.435897,0,0,2,32,60,0.0955556
Green_YC310_Pro_5B88_260929_092215.csv,1,29,28,8,52078.2,0.168313,4.82413e+06,0.364825,33.77,0.25,0.628333,0.0416663,0.0637037,0.524029,0.0154986,0.475971,0.734595,0.689406,0.631307,0.0689057,0.283976,0.461752,0.478389,2026-09-29 09:22:15,140,6,0.285714,0,0,65.625,0.320312,0,0.259259,0.37037,0.296296,0.0740741,2,33,60,0.0825
Green_YC310_Pro_5B88_260929_092433.csv,1,30,42,13,20741.8,0.042967,4.82625e+06,0.36525,33.7,-0.07,0.616667,-0.0116663,0.048,0.253276,-0.0157037,0.746724,0.741461,0.683148,0.625048,0.0988863,0.273967,0.467257,0.493903,2026-09-29 09:24:33,138,6,0.285714,0,0,89.172,0.61465,0.0571429,0.542857,0.342857,0.0571429,0,2,34,60,0.0877419
Green_YC310_Pro_5B88_260929_092656.csv,1,31,44,20,42216.8,0.128867,4.7854e+06,0.357081,33.49,-0.21,0.581667,-0.0350003,0.047907,0.251672,-9.30233e-05,0.748328,0.713895,0.653012,0.597482,0.0991586,0.262874,0.455575,0.493314,2026-09-29 09:26:56,143,6,0.285714,0,0,94.1512,0.67689,0.0232558,0.55814,0.418605,0,0,2,35,60,0.0861905
Green_YC310_Pro_5B88_260929_092910.csv,1,32,41,23,27430.6,0.0697225,4.60526e+06,0.321051,33.05,-0.44,0.508333,-0.0733337,0.0535,0.348103,0.005593,0.651897,0.697981,0.625403,0.581568,0.088546,0.241993,0.458357,0.516977,2026-09-29 09:29:10,134,6,0.285714,0,0,87.9199,0.598999,0,0.4,0.55,0.025,0.025,2,36,60,0.0947368
Green_YC310_Pro_5B88_260929_093132.csv,1,33,42,4,31468,0.0858721,4.30483e+06,0.260966,32.83,-0.22,0.471667,-0.0366663,0.0490323,0.271073,-0.00446774,0.728927,0.693719,0.598172,0.577306,0.077985,0.232662,0.460372,0.528322,2026-09-29 09:31:32,142,6,0.285714,6.7,0.335714,89.9358,0.624197,0.0645161,0.451613,0.451613,0.0322581,0,2,37,60,0.085
Green_YC310_Pro_5B88_260929_093349.csv,1,34,40,8,29137.8,0.0765513,4.49963e+06,0.299925,32.57,-0.26,0.428333,-0.0433337,0.0486486,0.264459,-0.000383651,0.735541,0.706384,0.588175,0.567309,0.0783604,0.21892,0.475054,0.556746,2026-09-29 09:33:49,137,7.7,0.407143,6.1,0.292857,83.6237,0.545296,0.027027,0.513514,0.459459,0,0,2,38,60,0.0871429
Green_YC310_Pro_5B88_260929_093608.csv,1,35,40,12,28164.4,0.0726577,4.41406e+06,0.282811,32.43,-0.14,0.405,-0.023333,0.0489474,0.26961,0.000298768,0.73039,0.719049,0.595032,0.574166,0.0532059,0.216875,0.487551,0.571289,2026-09-29 09:36:08,139,7.7,0.407143,6.9,0.35,87.146,0.589325,0,0.552632,0.447368,0,0,2,39,60,0.0877419
Green_YC310_Pro_5B88_260929_093826.csv,1,36,42,13,19821.5,0.0392859,5.08109e+06,0.416217,32.33,-0.1,0.388333,-0.0166667,0.0512195,0.308785,0.00227211,0.691215,0.688943,0.633291,0.612424,0.0441611,0.21353,0.478145,0.565227,2026-09-29 09:38:26,138,7.7,0.407143,7.2,0.371429,92.038,0.650475,0,0.487805,0.463415,0.0487805,0,2,40,60,0.0855556
Green_YC310_Pro_5B88_260929_094045.csv,1,37,43,9,15134.9,0.0205396,4.66517e+06,0.333035,32.23,-0.1,0.371667,-0.0166663,0.0533333,0.34523,0.00211383,0.65477,0.662776,0.622433,0.601566,0.0722426,0.202346,0.465656,0.563923,2026-09-29 09:40:45,139,7.7,0.407143,7.5,0.392857,92.8058,0.660073,0,0.333333,0.666667,0,0,2,41,60,0.101714
Green_YC310_Pro_5B88_260929_094305.csv,1,38,41,11,48006.9,0.152027,5.75625e+06,0.551251,32.09,-0.14,0.348333,-0.0233337,0.0540541,0.357656,0.000720754,0.642344,0.654154,0.611574,0.592944,0.0939301,0.190409,0.464325,0.574529,2026-09-29 09:43:05,140,7.7,0.407143,7.5,0.392857,86.8031,0.585039,0.108108,0.243243,0.513514,0.108108,0.027027,2,42,60,0.134545
Green_YC310_Pro_5B88_260929_094523.csv,1,39,40,5,42452.1,0.129808,5.36552e+06,0.473105,32.13,0.04,0.355,0.006667,0.0537931,0.353157,-0.000260997,0.646843,0.645533,0.598923,0.584322,0.109224,0.189282,0.456801,0.568132,2026-09-29 09:45:23,138,7.7,0.407143,8.1,0.435714,85.0461,0.563076,0,0.37931,0.551724,0.0689655,0,2,43,60,0.101818
Green_YC310_Pro_5B88_260929_094744.csv,1,40,40,12,26605,0.0664201,5.71031e+06,0.542062,32.14,0.01,0.356667,0.00166667,0.0536842,0.351279,-0.000108889,0.648721,0.621502,0.586272,0.571671,0.109345,0.189781,0.441649,0.55248,2026-09-29 09:47:44,141,7.7,0.407143,8.9,0.492857,85.9599,0.574499,0,0.342105,0.631579,0.0263158,0,2,44,60,0.097931
Green_YC310_Pro_5B88_260929_095002.csv,1,41,40,7,48097.7,0.152391,5.92548e+06,0.585096,32.14,0,0.356667,-3.33333e-07,0.0582353,0.429746,0.00455109,0.570254,0.615225,0.595605,0.581004,0.110094,0.189623,0.439139,0.550128,2026-09-29 09:50:02,138,7.7,0.407143,8.8,0.485714,88.7574,0.609468,0.0294118,0.176471,0.647059,0.147059,0,2,45,60,0.100909
Green_YC310_Pro_5B88_260929_095227.csv,1,42,41,12,34445.8,0.0977832,4.88349e+06,0.376699,32.19,0.05,0.365,0.008333,0.0523529,0.328327,-0.00588236,0.671673,0.626235,0.604938,0.590337,0.111471,0.19196,0.444642,0.553295,2026-09-29 09:52:27,145,6,0.285714,9.1,0.507143,88.6167,0.607709,0.0294118,0.352941,0.588235,0.0294118,0,2,46,60,0.097037
Green_YC310_Pro_5B88_260929_095441.csv,1,43,36,6,27637.5,0.07055,4.39266e+06,0.278533,32.17,-0.02,0.361667,-0.00333333,0.06,0.460172,0.0076471,0.539828,0.632278,0.569191,0.55459,0.0894824,0.195552,0.444844,0.549904,2026-09-29 09:54:41,134,6,0.285714,9.3,0.521429,76.0563,0.450704,0,0.25,0.583333,0.0833333,0.0833333,2,47,60,0.103333
Green_YC310_Pro_5B88_260929_095658.csv,1,44,36,4,31606.7,0.0864268,4.6205e+06,0.324101,32.13,-0.04,0.355,-0.006667,0.0521739,0.32524,-0.00782609,0.67476,0.63832,0.552408,0.537807,0.0747397,0.196563,0.447754,0.551803,2026-09-29 09:56:58,137,6,0.285714,9.2,0.514286,80.1782,0.502228,0,0.391304,0.608696,0,0,2,48,60,0.0955556
Green_YC310_Pro_5B88_260929_095917.csv,1,45,41,5,23888.8,0.0555551,4.57211e+06,0.314422,32.04,-0.09,0.34,-0.015,0.0557895,0.387577,0.00361557,0.612423,0.64747,0.533673,0.519072,0.0755687,0.191659,0.45386,0.562814,2026-09-29 09:59:17,139,6,0.285714,9.7,0.55,86.8644,0.585805,0.0263158,0.236842,0.657895,0.0789474,0,2,49,60,0.0875
Green_YC310_Pro_5B88_260929_100143.csv,1,46,36,5,36184.5,0.104738,5.26178e+06,0.452356,31.99,-0.05,0.331667,-0.00833333,0.0618182,0.49152,0.00602868,0.50848,0.655226,0.558699,0.526828,0.0774328,0.188638,0.462565,0.57454,2026-09-29 10:01:43,146,10.4,0.6,9.3,0.521429,76.8683,0.460854,0,0.227273,0.545455,0.136364,0.0909091,2,50,60,0.14
Green_YC310_Pro_5B88_260929_100356.csv,1,47,46,5,23909.8,0.0556391,4.88662e+06,0.377324,32.04,0.05,0.34,0.008333,0.048125,0.255431,-0.0136932,0.744569,0.699275,0.62944,0.570877,0.0720054,0.192411,0.493183,0.601384,2026-09-29 10:03:56,133,10.4,0.6,9.2,0.514286,100.51,0.756375,0.09375,0.4375,0.4375,0.03125,0,2,51,60,0.0823529
Green_YC310_Pro_5B88_260929_100617.csv,1,48,36,5,26564.2,0.066257,4.90835e+06,0.38167,31.85,-0.19,0.308333,-0.0316667,0.0518519,0.319687,0.00372685,0.680313,0.722545,0.608614,0.550052,0.0801885,0.180699,0.510305,0.630219,2026-09-29 10:06:17,141,10.4,0.6,9.8,0.557143,77.6978,0.471222,0,0.407407,0.592593,0,0,2,52,60,0.1
Green_YC310_Pro_5B88_260929_100834.csv,1,49,20,4,155993,0.583972,4.46053e+06,0.292106,31.89,0.04,0.315,0.006667,0.0738462,0.698899,0.0219943,0.301101,0.744569,0.756375,0.572076,0.0556391,0.187985,0.537215,0.649843,2026-09-29 10:08:34,137,10.4,0.6,9.7,0.55,70.0117,0.375146,0,0,0.538462,0.230769,0.230769,2,53,60,0.228
Green_YC310_Pro_5B88_260929_101059.csv,1,50,36,6,29341.1,0.0773645,4.52304e+06,0.304608,31.94,0.05,0.323333,0.00833333,0.057037,0.409087,-0.0168092,0.590913,0.744569,0.756375,0.572076,0.0556391,0.190612,0.535548,0.645549,2026-09-29 10:10:59,145,10.4,0.6,10.3,0.592857,80.8383,0.510479,0,0.259259,0.62963,0.111111,0,2,54,60,0.12
