Sheet Name,Segment,Index,total_beat_count,Sel_Min,diff,diff_n,mean,mean_n,temp,temp_raw_diff,temp_n,temp_diff,rise_low,rise_low_n,rise_low_diff,rise_low_n_inv,rise_low_n_inv_center,HR_n_center,HR_n_center_lim,diff_n_center,diff_anker,rl_inv_corr,inv_corr,datetime,time_gap_seconds,CGM,CGM_n,SMBG,SMBG_n,HR,HR_n,r20,r40,r60,r80,r100,time_gap_state,time_gap_slot,time_gap_offset_s,rise_low_50
Green_YC310_Pro_5B88_261001_233954.csv,2,1,31,15,11193.5,0.0047742,4.68896e+06,0.337792,33.85,0,0.641667,0,0.0393745,0.104561,0,0.895439,0.895439,0.756763,0.756763,0.0047742,0.301722,0.259289,0.25,2026-10-01 23:39:54,0,5.3,0.235714,5.5,0.25,100.541,0.756763,0,0.766667,0.233333,0,0,0,-1,-1,0.0834483
Green_YC310_Pro_5B88_261001_234105.csv,2,2,27,7,18035.8,0.0321432,5.23815e+06,0.447631,33.8,-0.05,0.633333,-0.00833367,0.0470022,0.236072,0.0076277,0.763928,0.818697,0.682032,0.682032,0.0244464,0.294941,0.259289,0.25,2026-10-01 23:41:05,71,5.3,0.235714,0,0,89.404,0.61755,0.0416667,0.375,0.541667,0.0416667,0,0,-1,-1,0.0933333
Green_YC310_Pro_5B88_261001_234331.csv,2,3,30,12,17181.3,0.0287252,6.13728e+06,0.627457,33.63,-0.17,0.605,-0.028333,0.0419234,0.148507,-0.00507879,0.851493,0.812175,0.665071,0.675509,0.036575,0.283446,0.259289,0.25,2026-10-01 23:43:31,146,5.6,0.257143,0,0,98.9011,0.736264,0,0.586207,0.413793,0,0,0,-1,-1,0.0878571
Green_YC310_Pro_5B88_261001_234604.csv,2,4,25,16,24134.6,0.0565384,6.70414e+06,0.740828,33.52,-0.11,0.586667,-0.0183333,0.0444747,0.192494,0.00255127,0.807506,0.821103,0.613505,0.623944,0.0488567,0.275072,0.267676,0.258387,2026-10-01 23:46:04,153,5.8,0.271429,0,0,85.6164,0.570205,0,0.26087,0.73913,0,0,0,-1,-1,0.105217
Green_YC310_Pro_5B88_261001_234832.csv,2,5,26,19,25326.6,0.0613065,4.88649e+06,0.377298,33.44,-0.08,0.573333,-0.0133337,0.04466,0.19569,0.000185342,0.80431,0.791289,0.567394,0.59413,0.0601619,0.268481,0.241555,0.232265,2026-10-01 23:48:32,148,5.8,0.271429,0,0,86.1878,0.577347,0,0.185185,0.814815,0,0,0,-1,-1,0.105385
Green_YC310_Pro_5B88_261001_235102.csv,2,6,26,17,25660.2,0.0626409,5.36451e+06,0.472903,33.42,-0.02,0.57,-0.003333,0.047111,0.237948,0.00245096,0.762052,0.792032,0.55463,0.581366,0.0697095,0.265414,0.240769,0.23148,2026-10-01 23:51:02,150,6.1,0.292857,0,0,84.2333,0.552916,0,0.24,0.72,0.04,0,0,-1,-1,0.106
Green_YC310_Pro_5B88_261001_235330.csv,2,7,25,21,31295.3,0.0851811,5.52403e+06,0.504805,33.42,0,0.57,3.33067e-16,0.0447851,0.197846,-0.00232593,0.802154,0.792775,0.530336,0.557072,0.0788619,0.263481,0.238393,0.229104,2026-10-01 23:53:30,148,6.5,0.321429,0,0,82.6902,0.533628,0,0.347826,0.652174,0,0,0,-1,-1,0.105455
Green_YC310_Pro_5B88_261001_235602.csv,2,8,24,22,32190.9,0.0887636,5.75392e+06,0.550785,33.47,0.05,0.578333,0.00833333,0.044091,0.18588,-0.000694056,0.81412,0.818725,0.521673,0.548409,0.0810327,0.26565,0.25459,0.2453,2026-10-01 23:56:02,152,7,0.357143,0,0,80.3571,0.504464,0,0.24,0.76,0,0,0,-1,-1,0.108
Green_YC310_Pro_5B88_261001_235831.csv,2,9,25,14,28868.2,0.0754727,5.8924e+06,0.578481,33.51,0.04,0.585,0.006667,0.0425957,0.160099,-0.00149527,0.839901,0.831572,0.508072,0.534808,0.0891862,0.266031,0.261695,0.252406,2026-10-01 23:58:31,149,7.7,0.407143,0,0,82.4176,0.53022,0,0.346154,0.653846,0,0,0,-1,-1,0.0976923
Green_YC310_Pro_5B88_261002_000101.csv,2,10,23,22,39259.1,0.117036,6.35932e+06,0.671864,33.62,0.11,0.603333,0.0183333,0.0425497,0.159305,-4.59948e-05,0.840695,0.848565,0.489532,0.516268,0.0970272,0.270155,0.270295,0.261006,2026-10-02 00:01:01,150,8.3,0.45,0,0,78.5877,0.482346,0,0.5,0.5,0,0,0,-1,-1,0.0983333
Green_YC310_Pro_5B88_261002_000332.csv,2,11,23,15,29641,0.0785641,4.88643e+06,0.377287,33.69,0.07,0.615,0.011667,0.0411342,0.1349,-0.00141548,0.8651,0.846175,0.477466,0.513878,0.0943499,0.274399,0.266519,0.257229,2026-10-02 00:03:32,151,8.4,0.457143,0,0,75.9076,0.448845,0,0.541667,0.458333,0,0,0,-1,-1,0.0941667
Green_YC310_Pro_5B88_261002_000601.csv,2,12,24,18,33068.6,0.0922743,5.27773e+06,0.455546,33.76,0.07,0.626667,0.0116667,0.0431788,0.170151,0.00204457,0.829849,0.843784,0.4654,0.511488,0.0874496,0.279535,0.262811,0.253522,2026-10-02 00:06:01,149,8.1,0.435714,0,0,76.841,0.460512,0,0.625,0.375,0,0,0,-1,-1,0.0930435
Green_YC310_Pro_5B88_261002_000834.csv,2,13,24,23,34083.8,0.096335,5.46841e+06,0.493682,33.83,0.07,0.638333,0.0116663,0.0436068,0.177531,0.000428006,0.822469,0.840215,0.510726,0.556814,0.0829873,0.284155,0.259551,0.250261,2026-10-02 00:08:34,153,7.9,0.421429,0,0,78.9474,0.486843,0,0.44,0.56,0,0,0,-1,-1,0.0944
Green_YC310_Pro_5B88_261002_001102.csv,2,14,25,23,28977.1,0.0759084,5.61121e+06,0.522242,33.88,0.05,0.646667,0.00833367,0.0424042,0.156797,-0.00120257,0.843203,0.836646,0.535645,0.581733,0.078525,0.287725,0.256511,0.247222,2026-10-02 00:11:02,148,7.6,0.4,0,0,83.7989,0.547486,0,0.5,0.5,0,0,0,-1,-1,0.0953846
Green_YC310_Pro_5B88_261002_001331.csv,2,15,26,13,25178.7,0.0607149,5.75266e+06,0.550532,33.93,0.05,0.655,0.008333,0.0423425,0.155733,-6.17013e-05,0.844267,0.84428,0.531412,0.577499,0.0847353,0.289041,0.260948,0.251659,2026-10-02 00:13:31,149,7.3,0.378571,0,0,85.8086,0.572607,0,0.444444,0.555556,0,0,0,-1,-1,0.0948148
Green_YC310_Pro_5B88_261002_001601.csv,2,16,24,23,38741.5,0.114966,6.1028e+06,0.62056,33.97,0.04,0.661667,0.00666667,0.0422785,0.154629,-6.40146e-05,0.845371,0.840313,0.527178,0.573533,0.09785,0.288374,0.257632,0.248343,2026-10-02 00:16:01,150,6.9,0.35,0,0,80.3571,0.504464,0,0.56,0.44,0,0,0,-1,-1,0.0944
Green_YC310_Pro_5B88_261002_001832.csv,2,17,24,22,35188.3,0.100753,6.19765e+06,0.63953,34.01,0.04,0.668333,0.00666633,0.0430953,0.168711,0.000816755,0.831289,0.838059,0.486622,0.571278,0.110784,0.287744,0.257851,0.248562,2026-10-02 00:18:32,151,6.6,0.328571,0,0,80.3571,0.504464,0,0.36,0.64,0,0,0,-1,-1,0.096
Green_YC310_Pro_5B88_261002_002102.csv,2,18,23,21,41666.2,0.126665,6.39559e+06,0.679119,34.17,0.16,0.695,0.026667,0.0407283,0.127901,-0.00236704,0.872099,0.837326,0.47613,0.570546,0.108011,0.296738,0.254593,0.245304,2026-10-02 00:21:02,150,6.4,0.314286,0,0,76.075,0.450938,0,0.5,0.5,0,0,0,-1,-1,0.0973913
Green_YC310_Pro_5B88_261002_002332.csv,2,19,26,22,29490.1,0.0779605,5.04641e+06,0.409283,34.23,0.06,0.705,0.01,0.0442331,0.188329,0.0035048,0.811671,0.839244,0.475261,0.569677,0.100632,0.301449,0.254834,0.245544,2026-10-02 00:23:32,150,6.2,0.3,0,0,86.0927,0.576159,0,0.666667,0.333333,0,0,0,-1,-1,0.0888889
Green_YC310_Pro_5B88_261002_002603.csv,2,20,24,22,39985.4,0.119941,5.25156e+06,0.450312,34.21,-0.02,0.701667,-0.00333333,0.0417894,0.146196,-0.00244372,0.853804,0.841162,0.484015,0.571594,0.107498,0.298948,0.255496,0.246206,2026-10-02 00:26:03,151,6.2,0.3,0,0,78.8609,0.485761,0,0.36,0.64,0,0,0,-1,-1,0.0944
Green_YC310_Pro_5B88_261002_002830.csv,2,21,24,22,38037.3,0.112149,5.25106e+06,0.450211,34.24,0.03,0.706667,0.00499967,0.0433094,0.172404,0.00152001,0.827596,0.836827,0.48976,0.577339,0.115534,0.298828,0.251318,0.242029,2026-10-02 00:28:30,147,6,0.285714,0,0,78.1759,0.477199,0,0.48,0.52,0,0,0,-1,-1,0.0928
Green_YC310_Pro_5B88_261002_003103.csv,2,22,25,23,39474,0.117896,5.50551e+06,0.501101,34.25,0.01,0.708333,0.00166633,0.0426878,0.161687,-0.000621573,0.838313,0.835377,0.495857,0.583436,0.116154,0.299222,0.249888,0.240599,2026-10-02 00:31:03,153,5.8,0.271429,0,0,80.6452,0.508065,0,0.4,0.6,0,0,0,-1,-1,0.0968
Green_YC310_Pro_5B88_261002_003332.csv,2,23,24,21,39169.1,0.116676,5.58649e+06,0.517297,34.26,0.01,0.71,0.001667,0.0410873,0.134091,-0.00160052,0.865909,0.839619,0.497066,0.584645,0.12241,0.298427,0.252628,0.243338,2026-10-02 00:33:32,149,5.7,0.264286,0,0,79.2079,0.490099,0,0.64,0.36,0,0,0,-1,-1,0.0928
Green_YC310_Pro_5B88_261002_003601.csv,2,24,24,23,43636.2,0.134545,5.67827e+06,0.535653,34.24,-0.02,0.706667,-0.00333333,0.0422658,0.15441,0.0011785,0.84559,0.842938,0.496418,0.583998,0.132659,0.295211,0.255394,0.246104,2026-10-02 00:36:01,149,5.7,0.264286,0,0,80,0.5,0,0.48,0.52,0,0,0,-1,-1,0.0944
Green_YC310_Pro_5B88_261002_003832.csv,2,25,24,23,46689.2,0.146757,5.87487e+06,0.574974,34.27,0.03,0.711667,0.00499967,0.0423994,0.156714,0.000133627,0.843286,0.845445,0.500347,0.586504,0.144246,0.294341,0.256482,0.247192,2026-10-02 00:38:32,151,5.6,0.257143,0,0,79.646,0.495575,0,0.36,0.64,0,0,0,-1,-1,0.0944
Green_YC310_Pro_5B88_261002_004101.csv,2,26,25,24,47858.8,0.151435,6.05753e+06,0.611507,34.31,0.04,0.718333,0.00666633,0.0420323,0.150384,-0.00036712,0.849616,0.846711,0.496897,0.583054,0.136864,0.298002,0.256513,0.247224,2026-10-02 00:41:01,149,5.6,0.257143,0,0,80.819,0.510238,0,0.538462,0.461538,0,0,0,-1,-1,0.0915385
Green_YC310_Pro_5B88_261002_004336.csv,2,27,23,22,38727.6,0.11491,4.9603e+06,0.39206,34.31,0,0.718333,3.33333e-07,0.0423708,0.156221,0.000338528,0.843779,0.850729,0.484878,0.571035,0.127525,0.299974,0.259334,0.250045,2026-10-02 00:43:36,155,5.5,0.25,0,0,75.2454,0.440568,0,0.333333,0.666667,0,0,0,-1,-1,0.0958333
Green_YC310_Pro_5B88_261002_004601.csv,2,28,23,22,42211.1,0.128845,5.37084e+06,0.474169,34.31,0,0.718333,3.33333e-07,0.0411603,0.13535,-0.00121047,0.86465,0.853247,0.469361,0.555518,0.120102,0.301542,0.261366,0.252077,2026-10-02 00:46:01,145,5.5,0.25,0,0,77.1812,0.464765,0,0.541667,0.458333,0,0,0,-1,-1,0.0925
Green_YC310_Pro_5B88_261002_004832.csv,2,29,23,22,41440.8,0.125763,5.36053e+06,0.472106,34.33,0.02,0.721667,0.00333367,0.0422789,0.154637,0.00111863,0.845363,0.850767,0.4795,0.565657,0.116551,0.303342,0.258983,0.249693,2026-10-02 00:48:32,151,5.6,0.257143,0,0,77.095,0.463687,0,0.375,0.625,0,0,0,-1,-1,0.0941667
Green_YC310_Pro_5B88_261002_005101.csv,2,30,26,21,36064.3,0.104257,5.2271e+06,0.44542,34.34,0.01,0.723333,0.00166633,0.0435434,0.176438,0.00126452,0.823562,0.842288,0.490252,0.576409,0.120467,0.303041,0.252509,0.24322,2026-10-02 00:51:01,149,5.6,0.257143,0,0,87.5421,0.594276,0,0.576923,0.423077,0,0,0,-1,-1,0.0930769
Green_YC310_Pro_5B88_261002_005332.csv,2,31,24,23,42318.4,0.129274,5.42276e+06,0.484552,34.34,0,0.723333,3.33333e-07,0.0429995,0.16706,-0.000543918,0.83294,0.834756,0.506107,0.592264,0.124383,0.302214,0.246193,0.236904,2026-10-02 00:53:32,151,5.7,0.264286,0,0,79.7342,0.496677,0,0.32,0.68,0,0,0,-1,-1,0.1008
Green_YC310_Pro_5B88_261002_005602.csv,2,32,26,13,44904.7,0.139619,6.01347e+06,0.602694,34.35,0.01,0.725,0.001667,0.0437543,0.180074,0.000754819,0.819926,0.831143,0.521961,0.608118,0.148354,0.297678,0.242163,0.232874,2026-10-02 00:56:02,150,5.8,0.271429,0,0,83.691,0.546138,0,0.346154,0.653846,0,0,0,-1,-1,0.101739
Green_YC310_Pro_5B88_261002_005834.csv,2,33,25,18,54042.4,0.176169,6.11993e+06,0.623985,34.34,-0.01,0.723333,-0.00166667,0.0426627,0.161253,-0.00109163,0.838747,0.831526,0.529623,0.608501,0.165139,0.293608,0.241902,0.232613,2026-10-02 00:58:34,152,6.1,0.292857,0,0,80.732,0.50915,0.04,0.28,0.68,0,0,0,-1,-1,0.0956522
Green_YC310_Pro_5B88_261002_010103.csv,2,34,26,8,54907.4,0.17963,6.18795e+06,0.637589,34.33,-0.01,0.721667,-0.00166633,0.0475712,0.245882,0.00490847,0.754118,0.832769,0.521713,0.600591,0.179567,0.290036,0.243822,0.234532,2026-10-02 01:01:03,149,6.3,0.307143,0,0,84.3243,0.554054,0,0.416667,0.541667,0.0416667,0,0,-1,-1,0.0981818
Green_YC310_Pro_5B88_261002_010331.csv,2,35,23,21,55725.5,0.182902,6.35755e+06,0.67151,34.36,0.03,0.726667,0.00499967,0.0439027,0.182632,-0.00366853,0.817368,0.830874,0.501936,0.598697,0.179967,0.291528,0.244145,0.234856,2026-10-02 01:03:31,148,6.3,0.307143,0,0,74.7562,0.434453,0,0.333333,0.666667,0,0,0,-1,-1,0.0975
Green_YC310_Pro_5B88_261002_010602.csv,2,36,23,22,54358.1,0.177432,6.5608e+06,0.71216,34.38,0.02,0.73,0.003333,0.0429922,0.166935,-0.000910498,0.833065,0.829779,0.47003,0.597602,0.186564,0.291186,0.245416,0.236127,2026-10-02 01:06:02,151,6.4,0.314286,0,0,77.4411,0.468014,0,0.333333,0.666667,0,0,0,-1,-1,0.0991667
Green_YC310_Pro_5B88_261002_010831.csv,2,37,23,22,62122.7,0.208491,6.74149e+06,0.748298,34.4,0.02,0.733333,0.00333333,0.0433543,0.173178,0.000362122,0.826822,0.828684,0.473549,0.601121,0.187551,0.292028,0.243964,0.234674,2026-10-02 01:08:31,149,6.4,0.314286,0,0,76.6667,0.458334,0,0.333333,0.666667,0,0,0,-1,-1,0.0983333
Green_YC310_Pro_5B88_261002_011104.csv,2,38,24,19,50393.5,0.161574,7.19011e+06,0.838022,34.4,0,0.733333,3.33333e-07,0.0435004,0.175697,0.000146119,0.824303,0.826975,0.467185,0.599412,0.176731,0.294313,0.242964,0.233675,2026-10-02 01:11:04,153,6.4,0.314286,0,0,79.3826,0.492282,0,0.36,0.64,0,0,0,-1,-1,0.0976
Green_YC310_Pro_5B88_261002_011331.csv,2,39,22,21,46242.7,0.144971,5.01654e+06,0.403308,34.4,0,0.733333,3.33333e-07,0.0432896,0.172062,-0.000210806,0.827938,0.821917,0.450937,0.594355,0.155643,0.298766,0.239388,0.230099,2026-10-02 01:13:31,147,6.2,0.3,0,0,73.991,0.424887,0,0.304348,0.695652,0,0,0,-1,-1,0.0982609
Green_YC310_Pro_5B88_261002_011601.csv,2,40,22,21,46306.6,0.145226,5.40186e+06,0.480373,34.4,0,0.733333,3.33333e-07,0.0444755,0.192509,0.00118593,0.807491,0.815947,0.475391,0.618808,0.140403,0.301984,0.23546,0.226171,2026-10-02 01:16:01,150,6.2,0.3,0,0,72.7674,0.409592,0,0.347826,0.652174,0,0,0,-1,-1,0.104348
Green_YC310_Pro_5B88_261002_011833.csv,2,41,23,22,45208.9,0.140836,5.37705e+06,0.47541,34.39,-0.01,0.731667,-0.00166633,0.0436997,0.179133,-0.000775778,0.820867,0.816959,0.499844,0.61982,0.131012,0.303442,0.236418,0.227129,2026-10-02 01:18:33,152,6.2,0.3,0,0,77.095,0.463687,0,0.291667,0.708333,0,0,0,-1,-1,0.0975
Green_YC310_Pro_5B88_261002_012101.csv,2,42,27,26,39199.2,0.116797,5.54201e+06,0.508402,34.39,0,0.731667,-3.33333e-07,0.0438306,0.181389,0.000130876,0.818611,0.821621,0.595875,0.624482,0.130521,0.303545,0.236418,0.227129,2026-10-02 01:21:01,148,6.3,0.307143,0,0,90.1001,0.626251,0,0.5,0.5,0,0,0,-1,-1,0.0885714
Green_YC310_Pro_5B88_261002_012332.csv,2,43,29,26,42932.7,0.131731,5.7124e+06,0.54248,34.4,0.01,0.733333,0.00166633,0.0422454,0.154058,-0.00158522,0.845942,0.825386,0.627365,0.628247,0.130031,0.304174,0.236418,0.227129,2026-10-02 01:23:32,151,6.4,0.314286,0,0,95.815,0.697688,0,0.733333,0.266667,0,0,0,-1,-1,0.0853333
Green_YC310_Pro_5B88_261002_012602.csv,2,44,27,24,45391.1,0.141565,5.7587e+06,0.55174,34.39,-0.01,0.731667,-0.00166633,0.0429764,0.166662,0.000731024,0.833338,0.837828,0.658855,0.640689,0.148958,0.299652,0.236418,0.227129,2026-10-02 01:26:02,150,6.4,0.314286,0,0,90.9091,0.636364,0,0.607143,0.392857,0,0,0,-1,-1,0.0925926
Green_YC310_Pro_5B88_261002_012831.csv,2,45,27,23,53394.6,0.173578,5.90917e+06,0.581834,34.38,-0.01,0.73,-0.001667,0.0416657,0.144063,-0.00131073,0.855937,0.8215,0.636375,0.624361,0.14239,0.300514,0.236418,0.227129,2026-10-02 01:28:31,149,6.4,0.314286,0,0,89.6018,0.620022,0,0.535714,0.464286,0,0,0,-1,-1,0.0914286
Green_YC310_Pro_5B88_261002_013101.csv,2,46,28,26,36158.2,0.104633,4.96138e+06,0.392277,34.37,-0.01,0.728333,-0.00166667,0.0466073,0.229264,0.0049416,0.770736,0.809782,0.606744,0.612643,0.13239,0.3021,0.228355,0.219066,2026-10-02 01:31:01,150,6.3,0.307143,0,0,90.4198,0.630247,0,0.551724,0.448276,0,0,0,-1,-1,0.0875862
Green_YC310_Pro_5B88_261002_013331.csv,2,47,25,24,40321.7,0.121287,5.36683e+06,0.473366,34.34,-0.03,0.723333,-0.00499967,0.0453972,0.2084,-0.00121013,0.7916,0.802674,0.569961,0.605534,0.11896,0.303359,0.223896,0.214607,2026-10-02 01:33:31,150,6.2,0.3,0,0,84.9377,0.561721,0,0.518519,0.481481,0,0,0,-1,-1,0.0896296
Green_YC310_Pro_5B88_261002_013602.csv,2,48,25,24,42739.7,0.130959,5.59635e+06,0.51927,34.32,-0.02,0.72,-0.003333,0.0429026,0.165389,-0.00249464,0.834611,0.800891,0.516609,0.603752,0.150747,0.295596,0.223035,0.213746,2026-10-02 01:36:02,151,6.1,0.292857,0,0,81.4332,0.517915,0,0.461538,0.538462,0,0,0,-1,-1,0.0915385
Green_YC310_Pro_5B88_261002_013833.csv,2,49,23,22,48579.4,0.154317,5.52402e+06,0.504805,34.3,-0.02,0.716667,-0.00333333,0.0436575,0.178405,0.000754891,0.821595,0.799108,0.51753,0.604673,0.160712,0.292441,0.222229,0.212939,2026-10-02 01:38:33,151,6.1,0.292857,0,0,77.6153,0.470191,0,0.416667,0.583333,0,0,0,-1,-1,0.0975
Green_YC310_Pro_5B88_261002_014101.csv,2,50,27,10,59215.2,0.196861,5.75932e+06,0.551864,34.27,-0.03,0.711667,-0.00500033,0.0470209,0.236395,0.00336342,0.763605,0.802973,0.495801,0.582944,0.162795,0.290424,0.225385,0.216095,2026-10-02 01:41:01,148,6.1,0.292857,0,0,85.2632,0.56579,0,0.48,0.48,0.04,0,0,-1,-1,0.0941667
Green_YC310_Pro_5B88_261002_014331.csv,2,51,23,21,50226.4,0.160906,5.92084e+06,0.584167,34.24,-0.03,0.706667,-0.00500033,0.0422301,0.153795,-0.00479078,0.846205,0.809098,0.451422,0.538564,0.164878,0.288408,0.229753,0.220463,2026-10-02 01:43:31,150,6,0.285714,0,0,74.1935,0.427419,0,0.608696,0.391304,0,0,0,-1,-1,0.1
Green_YC310_Pro_5B88_261002_014601.csv,2,52,20,18,43224,0.132896,4.97251e+06,0.394502,34.2,-0.04,0.7,-0.006667,0.0460482,0.219624,0.00381812,0.780376,0.807637,0.414803,0.537104,0.147157,0.290048,0.229244,0.219955,2026-10-02 01:46:01,150,5.9,0.278571,0,0,66.9643,0.337054,0,0,1,0,0,0,-1,-1,0.112381
Green_YC310_Pro_5B88_261002_014831.csv,2,53,21,20,45924.3,0.143697,5.35354e+06,0.470707,34.16,-0.04,0.693333,-0.00666667,0.0443862,0.190968,-0.00166204,0.809032,0.796331,0.378184,0.525797,0.130808,0.291399,0.221606,0.212317,2026-10-02 01:48:31,150,5.9,0.278571,0,0,69.8448,0.37306,0,0.318182,0.681818,0,0,0,-1,-1,0.103636
Green_YC310_Pro_5B88_261002_015101.csv,2,54,23,13,35735.4,0.102941,5.40633e+06,0.481266,34.15,-0.01,0.691667,-0.00166633,0.0441974,0.187715,-0.000188758,0.812285,0.800971,0.4222,0.530437,0.120146,0.293124,0.226387,0.217098,2026-10-02 01:51:01,150,5.9,0.278571,0,0,73.955,0.424437,0,0.173913,0.826087,0,0,0,-1,-1,0.101739
Green_YC310_Pro_5B88_261002_015333.csv,2,55,23,17,42751,0.131004,5.52463e+06,0.504927,34.13,-0.02,0.688333,-0.00333367,0.0452408,0.205703,0.00104336,0.794297,0.801903,0.414524,0.522762,0.123589,0.291346,0.227332,0.218042,2026-10-02 01:53:33,152,5.9,0.278571,0,0,77.5281,0.469101,0,0.375,0.583333,0.0416667,0,0,-1,-1,0.105
Green_YC310_Pro_5B88_261002_015601.csv,2,56,20,19,42352.1,0.129408,5.77677e+06,0.555353,34.11,-0.02,0.685,-0.003333,0.0446972,0.196331,-0.000543623,0.803669,0.799127,0.395491,0.519987,0.133068,0.288294,0.225405,0.216115,2026-10-02 01:56:01,148,5.9,0.278571,0,0,68.1818,0.352272,0,0.190476,0.809524,0,0,0,-1,-1,0.108571
Green_YC310_Pro_5B88_261002_015832.csv,2,57,20,17,45612.4,0.14245,5.96507e+06,0.593014,34.09,-0.02,0.681667,-0.00333333,0.0446804,0.196042,-1.67759e-05,0.803958,0.786627,0.365099,0.507486,0.129907,0.28791,0.216311,0.207022,2026-10-02 01:58:32,151,5.7,0.264286,0,0,68.3371,0.354214,0,0.210526,0.789474,0,0,0,-1,-1,0.10381
Green_YC310_Pro_5B88_261002_020100.csv,2,58,21,19,43532.9,0.134131,4.98101e+06,0.396202,34.06,-0.03,0.676667,-0.00500033,0.0464172,0.225986,0.00173676,0.774014,0.774126,0.362964,0.50535,0.117864,0.288877,0.208359,0.19907,2026-10-02 02:01:00,148,5.4,0.242857,0,0,70.2341,0.377926,0,0.0909091,0.909091,0,0,0,-1,-1,0.111818
Green_YC310_Pro_5B88_261002_020332.csv,2,59,21,10,29252.4,0.0770096,5.04345e+06,0.40869,34,-0.06,0.666667,-0.0100003,0.048141,0.255707,0.00172382,0.744293,0.774547,0.390939,0.505771,0.086288,0.292392,0.211222,0.201932,2026-10-02 02:03:32,152,5.3,0.235714,0,0,67.6692,0.345865,0,0.2,0.75,0.05,0,0,-1,-1,0.106
Green_YC310_Pro_5B88_261002_020601.csv,2,60,22,4,21930.8,0.0477234,5.05815e+06,0.41163,34,0,0.666667,-3.33333e-07,0.0446071,0.194778,-0.0035339,0.805222,0.769597,0.449027,0.563859,0.0827565,0.293137,0.209259,0.19997,2026-10-02 02:06:01,149,5.2,0.228571,0,0,72.1311,0.401639,0,0.173913,0.826087,0,0,0,-1,-1,0.103478
Green_YC310_Pro_5B88_261002_020839.csv,2,61,25,13,24353.4,0.0574135,5.4443e+06,0.488859,33.97,-0.03,0.661667,-0.00500033,0.0466804,0.230523,0.00207326,0.769477,0.759275,0.447998,0.56283,0.079225,0.292307,0.20271,0.193421,2026-10-02 02:08:39,158,5.1,0.221429,0,0,84.1751,0.552189,0,0.115385,0.884615,0,0,0,-1,-1,0.1144
Green_YC310_Pro_5B88_261002_021103.csv,2,62,20,19,43134.6,0.132538,5.41213e+06,0.482426,33.91,-0.06,0.651667,-0.0100003,0.0579885,0.425492,0.0113081,0.574508,0.739501,0.44697,0.561802,0.112536,0.28212,0.190432,0.181142,2026-10-02 02:11:03,144,5.2,0.228571,0,0,66.1521,0.326901,0,0,0.761905,0.238095,0,0,-1,-1,0.122857
Green_YC310_Pro_5B88_261002_021334.csv,2,63,20,19,46914.2,0.147657,5.59724e+06,0.519447,33.89,-0.02,0.648333,-0.00333367,0.0569701,0.407933,-0.0010184,0.592067,0.70664,0.380331,0.528941,0.134713,0.276386,0.165212,0.155923,2026-10-02 02:13:34,151,5.4,0.242857,0,0,67.3401,0.341751,0,0,0.809524,0.190476,0,0,-1,-1,0.126667
Green_YC310_Pro_5B88_261002_021602.csv,2,64,20,19,45986.4,0.143945,5.57175e+06,0.51435,33.9,0.01,0.65,0.001667,0.0552669,0.378567,-0.00170322,0.621433,0.681974,0.345604,0.504274,0.147134,0.274288,0.143895,0.134606,2026-10-02 02:16:02,148,5.3,0.235714,0,0,68.1818,0.352272,0,0,0.904762,0.0952381,0,0,-1,-1,0.122857
Green_YC310_Pro_5B88_261002_021830.csv,2,65,20,19,48246.7,0.152987,5.80618e+06,0.561237,33.91,0.01,0.651667,0.00166667,0.0563217,0.396753,0.00105475,0.603247,0.691569,0.352088,0.510758,0.146297,0.27499,0.151341,0.142052,2026-10-02 02:18:30,148,5.3,0.235714,0,0,66.8896,0.33612,0,0,0.904762,0.0952381,0,0,-1,-1,0.126667
Green_YC310_Pro_5B88_261002_022101.csv,2,66,21,9,43817.6,0.13527,6.07424e+06,0.614847,33.91,0,0.651667,-3.33333e-07,0.0588008,0.439496,0.00247905,0.560504,0.714144,0.351993,0.510664,0.142286,0.275837,0.167129,0.15784,2026-10-02 02:21:01,151,5.4,0.242857,0,0,70.7071,0.383839,0,0.0952381,0.52381,0.380952,0,0,-1,-1,0.128421
Green_YC310_Pro_5B88_261002_022332.csv,2,67,19,18,46404.3,0.145617,6.19211e+06,0.638421,33.91,0,0.651667,-3.33333e-07,0.0513387,0.310839,-0.00746212,0.689161,0.716239,0.347469,0.506139,0.132365,0.277932,0.167873,0.158584,2026-10-02 02:23:32,151,5.6,0.257143,0,0,64.3341,0.304176,0,0,0.95,0.05,0,0,-1,-1,0.124
Green_YC310_Pro_5B88_261002_022601.csv,2,68,21,19,33018.3,0.0920731,4.93114e+06,0.386229,33.97,0.06,0.661667,0.00999967,0.0484306,0.2607,-0.0029081,0.7393,0.718334,0.354391,0.508234,0.116208,0.284497,0.168789,0.1595,2026-10-02 02:26:01,149,5.7,0.264286,0,0,69.3069,0.366336,0,0.136364,0.818182,0.0454545,0,0,-1,-1,0.114286
Green_YC310_Pro_5B88_261002_022834.csv,2,69,22,21,31699.8,0.0867993,4.91617e+06,0.383235,34,0.03,0.666667,0.00499967,0.0479546,0.252493,-0.000475978,0.747507,0.72799,0.378648,0.517889,0.110592,0.287259,0.178531,0.169242,2026-10-02 02:28:34,153,5.7,0.264286,0,0,72.3684,0.404605,0,0.0434783,0.956522,0,0,0,-1,-1,0.113043
Green_YC310_Pro_5B88_261002_023101.csv,2,70,21,18,39743.3,0.118973,5.33124e+06,0.466247,34,0,0.666667,-3.33333e-07,0.0496586,0.281872,0.00170397,0.718128,0.733601,0.391523,0.523501,0.104976,0.288445,0.184218,0.174929,2026-10-02 02:31:01,147,6.1,0.292857,0,0,70.1559,0.376949,0,0.136364,0.818182,0.0454545,0,0,-1,-1,0.113333
Green_YC310_Pro_5B88_261002_023330.csv,2,71,22,19,40788.3,0.123153,5.50889e+06,0.501779,34.01,0.01,0.668333,0.00166633,0.0487401,0.266037,-0.000918468,0.733963,0.735169,0.388668,0.520646,0.111677,0.287556,0.184669,0.175379,2026-10-02 02:33:30,149,6.2,0.3,0,0,72.6073,0.407591,0,0.173913,0.826087,0,0,0,-1,-1,0.111304
Green_YC310_Pro_5B88_261002_023601.csv,2,72,21,17,36725.4,0.106902,5.5563e+06,0.511259,34.04,0.03,0.673333,0.00500033,0.0476818,0.24779,-0.00105829,0.75221,0.740412,0.384568,0.516546,0.1198,0.287417,0.186882,0.177592,2026-10-02 02:36:01,151,6.2,0.3,0,0,69.0033,0.362541,0,0.2,0.8,0,0,0,-1,-1,0.111818
Green_YC310_Pro_5B88_261002_023835.csv,2,73,22,21,43582,0.134328,5.77777e+06,0.555554,34.07,0.03,0.678333,0.00500033,0.0487463,0.266144,0.00106454,0.733856,0.742231,0.393435,0.518365,0.129346,0.286978,0.188764,0.179474,2026-10-02 02:38:35,154,6.1,0.292857,0,0,72.4479,0.405599,0,0.0869565,0.869565,0.0434783,0,0,-1,-1,0.117391
Green_YC310_Pro_5B88_261002_024101.csv,2,74,21,20,46701.6,0.146807,5.97553e+06,0.595106,34.09,0.02,0.681667,0.00333367,0.0478678,0.250997,-0.000878471,0.749003,0.744664,0.421519,0.520798,0.143123,0.285119,0.194457,0.185167,2026-10-02 02:41:01,146,6.1,0.292857,0,0,72,0.4,0,0.181818,0.818182,0,0,0,-1,-1,0.111818
Green_YC310_Pro_5B88_261002_024330.csv,2,75,22,20,47058.8,0.148235,6.16755e+06,0.63351,34.12,0.03,0.686667,0.00499967,0.047996,0.253206,0.000128151,0.746794,0.766899,0.458958,0.543033,0.121709,0.291218,0.214992,0.205702,2026-10-02 02:43:30,149,6.2,0.3,0,0,74.0741,0.425926,0,0,1,0,0,0,-1,-1,0.111304
Green_YC310_Pro_5B88_261002_024602.csv,2,76,25,8,28442,0.0737679,6.54404e+06,0.708809,34.11,-0.01,0.685,-0.001667,0.0434598,0.174996,-0.00453624,0.825004,0.794168,0.470749,0.554824,0.0995272,0.295376,0.23643,0.227141,2026-10-02 02:46:02,152,6.3,0.307143,0,0,81.4332,0.517915,0,0.36,0.64,0,0,0,-1,-1,0.100833
Green_YC310_Pro_5B88_261002_024829.csv,2,77,22,20,35584.4,0.102338,4.95395e+06,0.39079,34.09,-0.02,0.681667,-0.00333333,0.0460776,0.220131,0.0026178,0.779869,0.796554,0.462015,0.546091,0.0940908,0.295473,0.236696,0.227407,2026-10-02 02:48:29,147,6.3,0.307143,0,0,74.8299,0.435374,0,0.173913,0.826087,0,0,0,-1,-1,0.110435
Green_YC310_Pro_5B88_261002_025101.csv,2,78,23,21,34479.8,0.0979192,5.38378e+06,0.476757,34.06,-0.03,0.676667,-0.00500033,0.0448245,0.198526,-0.00125311,0.801474,0.794021,0.449463,0.543557,0.1012,0.292396,0.232912,0.223623,2026-10-02 02:51:01,152,6.3,0.307143,0,0,76.7519,0.459399,0,0.291667,0.708333,0,0,0,-1,-1,0.105
Green_YC310_Pro_5B88_261002_025331.csv,2,79,27,16,35059.9,0.100239,5.50359e+06,0.500719,34.03,-0.03,0.671667,-0.00500033,0.0432843,0.17197,-0.00154023,0.82803,0.800512,0.455513,0.549608,0.103344,0.290367,0.239359,0.230069,2026-10-02 02:53:31,150,6.3,0.307143,0,0,87.5676,0.594595,0,0.4,0.6,0,0,0,-1,-1,0.104
Green_YC310_Pro_5B88_261002_025601.csv,2,80,24,20,37968.2,0.111873,5.74319e+06,0.548638,34.02,-0.01,0.67,-0.001667,0.0438517,0.181754,0.000567406,0.818246,0.807003,0.461564,0.555658,0.116251,0.287115,0.245397,0.236108,2026-10-02 02:56:01,150,6.2,0.3,0,0,78.1759,0.477199,0,0.24,0.76,0,0,0,-1,-1,0.1008
Green_YC310_Pro_5B88_261002_025833.csv,2,81,23,22,44160.4,0.136642,5.94845e+06,0.58969,34.01,-0.01,0.668333,-0.00166667,0.0445235,0.193337,0.000671847,0.806663,0.813494,0.467614,0.561709,0.108978,0.288126,0.251557,0.242267,2026-10-02 02:58:33,152,6,0.285714,0,0,76.1589,0.451986,0,0.333333,0.666667,0,0,0,-1,-1,0.1025
Green_YC310_Pro_5B88_261002_030101.csv,2,82,24,18,28510.2,0.0740406,5.03134e+06,0.406268,34,-0.01,0.666667,-0.00166633,0.0433667,0.173392,-0.00115679,0.826608,0.812524,0.476835,0.570929,0.106172,0.288193,0.253321,0.244032,2026-10-02 03:01:01,148,5.9,0.278571,0,0,79.2952,0.49119,0,0.36,0.64,0,0,0,-1,-1,0.1016
Green_YC310_Pro_5B88_261002_030331.csv,2,83,24,23,32293.9,0.0891756,4.94928e+06,0.389856,33.99,-0.01,0.665,-0.001667,0.0436719,0.178654,0.000305216,0.821346,0.806877,0.478375,0.572469,0.107832,0.287317,0.24998,0.24069,2026-10-02 03:03:31,150,5.9,0.278571,0,0,77.8378,0.472973,0,0.2,0.8,0,0,0,-1,-1,0.1032
Green_YC310_Pro_5B88_261002_030600.csv,2,84,19,3,45406,0.141624,5.12144e+06,0.424288,33.97,-0.02,0.661667,-0.00333333,0.0482278,0.257203,0.00455586,0.742797,0.806044,0.472178,0.571637,0.110527,0.285697,0.248421,0.239131,2026-10-02 03:06:00,149,5.8,0.271429,0,0,66.5111,0.331389,0,0.4375,0.4375,0.125,0,0,-1,-1,0.1
Green_YC310_Pro_5B88_261002_030832.csv,2,85,23,20,32532,0.0901279,5.395e+06,0.478999,33.96,-0.01,0.66,-0.001667,0.0453146,0.206975,-0.00291323,0.793025,0.805211,0.467197,0.570804,0.113223,0.284602,0.246891,0.237602,2026-10-02 03:08:32,152,5.8,0.271429,0,0,77.095,0.463687,0,0.291667,0.708333,0,0,0,-1,-1,0.108333
Green_YC310_Pro_5B88_261002_031100.csv,2,86,23,21,31205.3,0.0848211,5.65514e+06,0.531028,33.97,0.01,0.661667,0.00166667,0.0440789,0.185672,-0.00123565,0.814328,0.795472,0.457329,0.561064,0.104177,0.287038,0.237396,0.228106,2026-10-02 03:11:00,148,5.8,0.271429,0,0,76.9231,0.461539,0,0.333333,0.666667,0,0,0,-1,-1,0.1025
Green_YC310_Pro_5B88_261002_031331.csv,2,87,23,20,35319.6,0.101278,5.75017e+06,0.550034,33.98,0.01,0.663333,0.00166633,0.0456403,0.212592,0.00156141,0.787408,0.779063,0.479239,0.582974,0.095131,0.289473,0.230937,0.221647,2026-10-02 03:13:31,151,5.8,0.271429,0,0,75.7409,0.446761,0,0.0833333,0.916667,0,0,0,-1,-1,0.109167
Green_YC310_Pro_5B88_261002_031601.csv,2,88,25,8,36360.1,0.105441,6.13277e+06,0.626554,33.98,0,0.663333,3.33333e-07,0.0481697,0.256202,0.00252941,0.743798,0.773731,0.476236,0.579971,0.0977817,0.288914,0.226532,0.217243,2026-10-02 03:16:01,150,5.7,0.264286,0,0,82.6902,0.533628,0.0416667,0.25,0.583333,0.125,0,0,-1,-1,0.103
Green_YC310_Pro_5B88_261002_031831.csv,2,89,22,19,34515.5,0.0980619,6.29177e+06,0.658354,33.95,-0.03,0.658333,-0.00499967,0.0472322,0.240038,-0.000937509,0.759962,0.768398,0.43152,0.574639,0.100432,0.286777,0.217624,0.208334,2026-10-02 03:18:31,150,5.7,0.264286,0,0,71.2743,0.390929,0,0.173913,0.782609,0.0434783,0,0,-1,-1,0.112727
Green_YC310_Pro_5B88_261002_032101.csv,2,90,22,20,34448.6,0.0977943,5.02312e+06,0.404623,33.92,-0.03,0.653333,-0.00499967,0.045316,0.207001,-0.00191615,0.792999,0.773273,0.392258,0.535377,0.0927342,0.286827,0.217893,0.208603,2026-10-02 03:21:01,150,5.7,0.264286,0,0,72.8477,0.410596,0,0.217391,0.782609,0,0,0,-1,-1,0.107273
Green_YC310_Pro_5B88_261002_032332.csv,2,91,21,19,30586.6,0.0823465,5.04665e+06,0.40933,33.9,-0.02,0.65,-0.003333,0.0473216,0.24158,0.00200564,0.75842,0.773433,0.385271,0.528389,0.0931527,0.285687,0.217899,0.20861,2026-10-02 03:23:32,151,5.8,0.271429,0,0,68.5528,0.35691,0,0.0909091,0.909091,0,0,0,-1,-1,0.114545
Green_YC310_Pro_5B88_261002_032602.csv,2,92,22,20,33243.2,0.0929729,5.46224e+06,0.492448,33.9,0,0.65,-2.22045e-16,0.0461529,0.22143,-0.00116865,0.77857,0.768879,0.397724,0.540843,0.0935712,0.285599,0.21601,0.20672,2026-10-02 03:26:02,150,5.9,0.278571,0,0,73.3333,0.416666,0,0.173913,0.826087,0,0,0,-1,-1,0.107826
Green_YC310_Pro_5B88_261002_032834.csv,2,93,22,20,36199.1,0.104796,5.61531e+06,0.523062,33.93,0.03,0.655,0.005,0.0461084,0.220662,-4.44783e-05,0.779338,0.772494,0.41946,0.544458,0.0948799,0.286899,0.220051,0.210762,2026-10-02 03:28:34,152,5.7,0.264286,0,0,72.0524,0.400655,0,0.0869565,0.913043,0,0,0,-1,-1,0.109565
Green_YC310_Pro_5B88_261002_033104.csv,2,94,22,20,35240.6,0.100962,5.81242e+06,0.562483,33.95,0.02,0.658333,0.00333333,0.04623,0.222758,0.000121582,0.777242,0.776109,0.441058,0.548074,0.0961886,0.287674,0.224364,0.215075,2026-10-02 03:31:04,150,5.5,0.25,0,0,72.6073,0.407591,0,0.130435,0.869565,0,0,0,-1,-1,0.109565
Green_YC310_Pro_5B88_261002_033331.csv,2,95,24,8,30702,0.0828079,5.89315e+06,0.57863,33.96,0.01,0.66,0.001667,0.0492816,0.275372,0.00305158,0.724628,0.768668,0.433704,0.54072,0.0768043,0.292292,0.2181,0.20881,2026-10-02 03:33:31,147,5.4,0.242857,0,0,78.5169,0.481461,0,0.125,0.75,0.125,0,0,-1,-1,0.113333
Green_YC310_Pro_5B88_261002_033600.csv,2,96,22,20,28776,0.0751041,4.70348e+06,0.340696,33.93,-0.03,0.655,-0.005,0.0474032,0.242987,-0.00187838,0.757013,0.76328,0.424589,0.535332,0.0689082,0.292383,0.214191,0.204902,2026-10-02 03:36:00,149,5.4,0.242857,0,0,70.2875,0.378594,0,0.136364,0.863636,0,0,0,-1,-1,0.110909
Green_YC310_Pro_5B88_261002_033832.csv,2,97,22,15,22203.2,0.0488127,4.7592e+06,0.351839,33.91,-0.02,0.651667,-0.00333333,0.0469888,0.235841,-0.000414409,0.764159,0.75815,0.413711,0.530202,0.0658686,0.291974,0.210112,0.200822,2026-10-02 03:38:32,152,5.3,0.235714,0,0,72.9282,0.411603,0,0.130435,0.869565,0,0,0,-1,-1,0.106364
Green_YC310_Pro_5B88_261002_034100.csv,2,98,23,12,25770.6,0.0630825,4.84613e+06,0.369227,33.88,-0.03,0.646667,-0.00500033,0.0479683,0.25273,0.000979548,0.74727,0.770978,0.452714,0.54303,0.062829,0.291039,0.222992,0.213703,2026-10-02 03:41:00,148,5.3,0.235714,0,0,76.075,0.450938,0,0.0833333,0.916667,0,0,0,-1,-1,0.112174
Green_YC310_Pro_5B88_261002_034331.csv,2,99,23,21,29211.3,0.0768454,5.40081e+06,0.480161,33.87,-0.01,0.645,-0.001667,0.0438345,0.181457,-0.00413378,0.818543,0.801505,0.476237,0.566552,0.070392,0.288917,0.246406,0.237117,2026-10-02 03:43:31,151,5.4,0.242857,0,0,76.075,0.450938,0,0.565217,0.434783,0,0,0,-1,-1,0.102609
Green_YC310_Pro_5B88_261002_034603.csv,2,100,25,22,27875.4,0.0715016,5.37057e+06,0.474114,33.86,-0.01,0.643333,-0.00166667,0.0426652,0.161297,-0.00116929,0.838703,0.832309,0.475442,0.565758,0.0772335,0.286947,0.268113,0.258824,2026-10-02 03:46:03,152,5.4,0.242857,0,0,82.1468,0.526835,0,0.346154,0.653846,0,0,0,-1,-1,0.103077
Green_YC310_Pro_5B88_261002_034831.csv,2,101,25,24,29558.2,0.0782329,5.35809e+06,0.471618,33.84,-0.02,0.64,-0.003333,0.0426085,0.160318,-5.67473e-05,0.839682,0.821433,0.474647,0.564963,0.0833535,0.284603,0.260809,0.251519,2026-10-02 03:48:31,148,5.3,0.235714,0,0,80.5585,0.506981,0,0.615385,0.384615,0,0,0,-1,-1,0.0984
Green_YC310_Pro_5B88_261002_035101.csv,2,102,23,19,33801.3,0.0952054,5.36902e+06,0.473804,33.82,-0.02,0.636667,-0.00333333,0.0440572,0.185297,0.00144874,0.814703,0.810556,0.470464,0.56078,0.0847835,0.283251,0.253077,0.243788,2026-10-02 03:51:01,150,5.3,0.235714,0,0,73.7968,0.42246,0,0.333333,0.666667,0,0,0,-1,-1,0.104167
Green_YC310_Pro_5B88_261002_035332.csv,2,103,25,15,30335.2,0.0813407,5.80028e+06,0.560055,33.79,-0.03,0.631667,-0.00500033,0.045987,0.21857,0.00192985,0.78143,0.808372,0.466281,0.558595,0.0862135,0.281372,0.251548,0.242259,2026-10-02 03:53:32,151,5.3,0.235714,0,0,80.3859,0.504824,0,0.32,0.6,0.08,0,0,-1,-1,0.1
Green_YC310_Pro_5B88_261002_035600.csv,2,104,24,20,29305.4,0.0772216,5.94887e+06,0.589774,33.77,-0.02,0.628333,-0.00333367,0.0437976,0.18082,-0.00218945,0.81918,0.806187,0.453895,0.556411,0.085803,0.280408,0.248244,0.238955,2026-10-02 03:56:00,148,5.3,0.235714,0,0,80.8081,0.510101,0,0.36,0.64,0,0,0,-1,-1,0.1048
Green_YC310_Pro_5B88_261002_035830.csv,2,105,22,17,29904.2,0.0796169,4.91285e+06,0.382571,33.74,-0.03,0.623333,-0.00499967,0.0431153,0.169056,-0.000682327,0.830944,0.80678,0.441509,0.544025,0.0853925,0.278918,0.24699,0.237701,2026-10-02 03:58:30,150,5.3,0.235714,0,0,73.4149,0.417686,0,0.380952,0.619048,0,0,0,-1,-1,0.101739
Green_YC310_Pro_5B88_261002_040100.csv,2,106,22,19,34834.7,0.0993389,5.35175e+06,0.47035,33.73,-0.01,0.621667,-0.00166633,0.0458839,0.216791,0.00276859,0.783209,0.796231,0.388255,0.533476,0.101553,0.27498,0.231036,0.221747,2026-10-02 04:01:00,150,5.3,0.235714,0,0,71.7391,0.396739,0,0.136364,0.863636,0,0,0,-1,-1,0.106957
Green_YC310_Pro_5B88_261002_040330.csv,2,107,20,19,41425.7,0.125703,5.73333e+06,0.546667,33.73,0,0.621667,-3.33333e-07,0.0456313,0.212436,-0.000252598,0.787564,0.771736,0.381256,0.526477,0.107534,0.273717,0.212846,0.203556,2026-10-02 04:03:30,150,5.3,0.235714,0,0,68.0272,0.35034,0,0.15,0.85,0,0,0,-1,-1,0.109524
Green_YC310_Pro_5B88_261002_040600.csv,2,108,21,17,39629.1,0.118517,5.78959e+06,0.557919,33.72,-0.01,0.62,-0.001667,0.0490508,0.271393,0.0034195,0.728607,0.762483,0.378933,0.524155,0.113515,0.271928,0.206323,0.197034,2026-10-02 04:06:00,150,5.3,0.235714,0,0,72.4138,0.405172,0,0.0909091,0.863636,0.0454545,0,0,-1,-1,0.11
Green_YC310_Pro_5B88_261002_040831.csv,2,109,21,19,34081.4,0.0963257,5.80237e+06,0.560474,33.71,-0.01,0.618333,-0.00166667,0.044611,0.194845,-0.00443982,0.805155,0.769546,0.39835,0.531218,0.0877071,0.276853,0.214401,0.205111,2026-10-02 04:08:31,151,5.3,0.235714,0,0,68.4039,0.355049,0,0.318182,0.681818,0,0,0,-1,-1,0.105455
Green_YC310_Pro_5B88_261002_041101.csv,2,110,24,11,22069.6,0.0482785,4.88479e+06,0.376958,33.7,-0.01,0.616667,-0.00166633,0.045998,0.218758,0.00138697,0.781242,0.774876,0.434829,0.536548,0.0727882,0.279478,0.214401,0.205111,2026-10-02 04:11:01,150,5.3,0.235714,0,0,79.558,0.494475,0,0.347826,0.652174,0,0,0,-1,-1,0.104348
Green_YC310_Pro_5B88_261002_041330.csv,2,111,25,8,24855.1,0.0594204,5.59894e+06,0.519788,33.64,-0.06,0.606667,-0.0100003,0.0481233,0.255402,0.00212531,0.744598,0.767233,0.444029,0.545747,0.0578694,0.279475,0.214401,0.205111,2026-10-02 04:13:30,149,5.4,0.242857,0,0,81.1688,0.51461,0,0.269231,0.692308,0.0384615,0,0,-1,-1,0.1056
Green_YC310_Pro_5B88_261002_041600.csv,2,112,22,13,26477.3,0.0659093,5.57991e+06,0.515982,33.59,-0.05,0.598333,-0.00833367,0.0475741,0.245933,-0.000549161,0.754067,0.768078,0.453228,0.546592,0.0750582,0.273218,0.214401,0.205111,2026-10-02 04:16:00,150,5.4,0.242857,0,0,75.4286,0.442858,0,0.130435,0.869565,0,0,0,-1,-1,0.108182
Green_YC310_Pro_5B88_261002_041833.csv,2,113,21,20,32503.1,0.0900123,5.47583e+06,0.495166,33.55,-0.04,0.591667,-0.00666633,0.046343,0.224707,-0.00123108,0.775293,0.777409,0.414341,0.507704,0.0859199,0.268822,0.214401,0.205111,2026-10-02 04:18:33,153,5.3,0.235714,0,0,71.3477,0.391846,0,0.272727,0.727273,0,0,0,-1,-1,0.106364
Green_YC310_Pro_5B88_261002_042101.csv,2,114,21,20,35459.5,0.101838,5.4378e+06,0.487559,33.52,-0.03,0.586667,-0.00500033,0.0463769,0.225291,3.38769e-05,0.774709,0.764271,0.392647,0.494566,0.0915025,0.266067,0.214401,0.205111,2026-10-02 04:21:01,148,5.3,0.235714,0,0,71.8358,0.397948,0,0.0909091,0.909091,0,0,0,-1,-1,0.11
Green_YC310_Pro_5B88_261002_042331.csv,2,115,21,19,31687.4,0.0867496,5.4904e+06,0.49808,33.48,-0.04,0.58,-0.006667,0.0482269,0.257188,0.00185002,0.742812,0.764751,0.402053,0.495046,0.111139,0.259818,0.217116,0.207827,2026-10-02 04:23:31,150,5.3,0.235714,0,0,70.6278,0.382847,0,0.0909091,0.909091,0,0,0,-1,-1,0.112727
Green_YC310_Pro_5B88_261002_042602.csv,2,116,25,4,52304.9,0.169219,6.36371e+06,0.672742,33.43,-0.05,0.571667,-0.00833333,0.0460581,0.219795,-0.00216882,0.780205,0.771084,0.419147,0.501379,0.118325,0.255674,0.22471,0.21542,2026-10-02 04:26:02,151,5.4,0.242857,0,0,83.7054,0.546318,0,0.380952,0.428571,0.142857,0.047619,0,-1,-1,0.12
Green_YC310_Pro_5B88_261002_042831.csv,2,117,22,21,28213.2,0.0728528,5.95116e+06,0.590232,33.39,-0.04,0.565,-0.006667,0.0468132,0.232814,0.000755105,0.767186,0.780293,0.443422,0.510588,0.0990069,0.257651,0.234336,0.225047,2026-10-02 04:28:31,149,5.5,0.25,0,0,72.3684,0.404605,0,0.181818,0.818182,0,0,0,-1,-1,0.112727
Green_YC310_Pro_5B88_261002_043100.csv,2,118,24,12,17198.7,0.0287947,4.91302e+06,0.382604,33.4,0.01,0.566667,0.00166667,0.0449315,0.20037,-0.00188175,0.79963,0.786755,0.481092,0.51705,0.070221,0.264255,0.240781,0.231492,2026-10-02 04:31:00,149,5.6,0.257143,0,0,79.2952,0.49119,0,0.24,0.76,0,0,0,-1,-1,0.1032
Green_YC310_Pro_5B88_261002_043335.csv,2,119,24,7,30715.3,0.0828614,4.9632e+06,0.39264,33.48,0.08,0.58,0.013333,0.043317,0.172535,-0.00161448,0.827465,0.789468,0.480104,0.516062,0.0619822,0.270199,0.240841,0.231552,2026-10-02 04:33:35,155,5.5,0.25,0,0,84.6063,0.557579,0,0.541667,0.458333,0,0,0,-1,-1,0.106087
Green_YC310_Pro_5B88_261002_043600.csv,2,120,21,20,27005.7,0.0680229,4.90879e+06,0.381757,33.46,-0.02,0.576667,-0.00333333,0.0454082,0.20859,0.00209125,0.79141,0.788202,0.479117,0.515075,0.0742904,0.266549,0.240417,0.231127,2026-10-02 04:36:00,145,5.4,0.242857,0,0,72.1649,0.402061,0,0.181818,0.818182,0,0,0,-1,-1,0.11
Green_YC310_Pro_5B88_261002_043831.csv,2,121,22,20,26429.8,0.0657193,5.37816e+06,0.475633,33.46,0,0.576667,-3.33333e-07,0.0451518,0.204168,-0.000256438,0.795832,0.788655,0.433168,0.469126,0.0738478,0.266642,0.237911,0.228621,2026-10-02 04:38:31,151,5.3,0.235714,0,0,72.0524,0.400655,0,0.304348,0.695652,0,0,0,-1,-1,0.108696
Green_YC310_Pro_5B88_261002_044101.csv,2,122,22,20,28864.2,0.0754569,5.30389e+06,0.460778,33.48,0.02,0.58,0.003333,0.0459579,0.218068,0.000806123,0.781932,0.786387,0.407739,0.466857,0.0734053,0.267786,0.234179,0.224889,2026-10-02 04:41:01,150,5.3,0.235714,0,0,73.5786,0.419732,0,0.173913,0.826087,0,0,0,-1,-1,0.106087
Green_YC310_Pro_5B88_261002_044330.csv,2,123,21,20,30272.8,0.0810912,5.50425e+06,0.500849,33.5,0.02,0.583333,0.00333333,0.0457306,0.214148,-0.000227321,0.785852,0.782989,0.404773,0.463891,0.0776785,0.267935,0.231055,0.221766,2026-10-02 04:43:30,149,5.3,0.235714,0,0,71.267,0.390837,0,0.272727,0.727273,0,0,0,-1,-1,0.107273
Green_YC310_Pro_5B88_261002_044602.csv,2,124,22,21,29634.8,0.0785391,5.71119e+06,0.542238,33.52,0.02,0.586667,0.00333367,0.0461675,0.221681,0.000436872,0.778319,0.782606,0.409681,0.468799,0.0823388,0.268002,0.2304,0.221111,2026-10-02 04:46:02,152,5.3,0.235714,0,0,73.4149,0.417686,0,0.217391,0.782609,0,0,0,-1,-1,0.111304
Green_YC310_Pro_5B88_261002_044830.csv,2,125,21,20,31604.1,0.0864166,5.92413e+06,0.584827,33.55,0.03,0.591667,0.00499967,0.0456098,0.212066,-0.000557696,0.787934,0.781104,0.413832,0.47295,0.0873861,0.268513,0.228642,0.219353,2026-10-02 04:48:30,148,5.3,0.235714,0,0,73.0012,0.412515,0,0.272727,0.727273,0,0,0,-1,-1,0.106364
Green_YC310_Pro_5B88_261002_045101.csv,2,126,22,20,34058.3,0.0962332,6.13223e+06,0.626446,33.58,0.03,0.596667,0.00499967,0.0466369,0.229773,0.00102705,0.770227,0.781181,0.408862,0.467981,0.0848813,0.270618,0.227622,0.218333,2026-10-02 04:51:01,151,5.3,0.235714,0,0,73.0088,0.41261,0,0.173913,0.826087,0,0,0,-1,-1,0.109565
Green_YC310_Pro_5B88_261002_045331.csv,2,127,22,17,27924.2,0.0716969,4.85762e+06,0.371524,33.59,0.01,0.598333,0.00166633,0.0463256,0.224407,-0.00031132,0.775593,0.785383,0.405415,0.464533,0.0823764,0.271672,0.230116,0.220826,2026-10-02 04:53:31,150,5.4,0.242857,0,0,71.8172,0.397715,0,0.217391,0.782609,0,0,0,-1,-1,0.113043
Green_YC310_Pro_5B88_261002_045601.csv,2,128,22,15,27129.9,0.0685196,5.33491e+06,0.466982,33.6,0.01,0.6,0.001667,0.0452432,0.205745,-0.00108241,0.794255,0.785986,0.405912,0.465031,0.0772842,0.273273,0.230273,0.220983,2026-10-02 04:56:01,150,5.4,0.242857,0,0,73.0897,0.413621,0,0.0434783,0.956522,0,0,0,-1,-1,0.111304
Green_YC310_Pro_5B88_261002_045831.csv,2,129,22,16,30239.2,0.0809567,5.34622e+06,0.469243,33.62,0.02,0.603333,0.00333333,0.0451371,0.203915,-0.000106133,0.796085,0.797362,0.407106,0.466224,0.0723795,0.27536,0.237692,0.228403,2026-10-02 04:58:31,150,5.4,0.242857,0,0,71.8954,0.398692,0,0.347826,0.652174,0,0,0,-1,-1,0.105217
Green_YC310_Pro_5B88_261002_050100.csv,2,130,22,20,25051.5,0.0602059,5.35388e+06,0.470776,33.62,0,0.603333,3.33333e-07,0.0448087,0.198254,-0.000328352,0.801746,0.79817,0.409005,0.467032,0.0676623,0.276356,0.238268,0.228978,2026-10-02 05:01:00,149,5.4,0.242857,0,0,72.6872,0.40859,0,0.434783,0.565217,0,0,0,-1,-1,0.106087
Green_YC310_Pro_5B88_261002_050332.csv,2,131,22,19,23592,0.0543679,5.2931e+06,0.458621,33.62,0,0.603333,3.33333e-07,0.0451767,0.204599,0.000368016,0.795401,0.799814,0.41636,0.468677,0.0646353,0.276995,0.23941,0.230121,2026-10-02 05:03:32,152,5.4,0.242857,0,0,73.5786,0.419732,0,0.217391,0.782609,0,0,0,-1,-1,0.104348
Green_YC310_Pro_5B88_261002_050601.csv,2,132,22,20,27968.9,0.0718758,5.59383e+06,0.518767,33.62,0,0.603333,3.33333e-07,0.0445209,0.193291,-0.000655819,0.806709,0.794951,0.416271,0.468587,0.0652361,0.276868,0.236006,0.226717,2026-10-02 05:06:01,149,5.4,0.242857,0,0,73.6607,0.420759,0,0.26087,0.73913,0,0,0,-1,-1,0.106087
Green_YC310_Pro_5B88_261002_050831.csv,2,133,23,18,25706.2,0.0628247,5.67913e+06,0.535826,33.61,-0.01,0.601667,-0.00166633,0.0465929,0.229015,0.00207199,0.770985,0.786568,0.416181,0.468497,0.0712763,0.275067,0.230417,0.221127,2026-10-02 05:08:31,150,5.4,0.242857,0,0,73.4824,0.41853,0,0.217391,0.73913,0.0434783,0,0,-1,-1,0.109091
Green_YC310_Pro_5B88_261002_051100.csv,2,134,22,21,31895,0.08758,5.79692e+06,0.559383,33.61,0,0.601667,-3.33333e-07,0.0450495,0.202406,-0.00154338,0.797594,0.784229,0.418946,0.471262,0.0739299,0.274507,0.228793,0.219503,2026-10-02 05:11:00,149,5.6,0.257143,0,0,72.9282,0.411603,0,0.0869565,0.913043,0,0,0,-1,-1,0.109565
Green_YC310_Pro_5B88_261002_051331.csv,2,135,22,20,30927.3,0.0837093,6.01316e+06,0.602633,33.64,0.03,0.606667,0.00499967,0.0443604,0.190524,-0.000689113,0.809476,0.784108,0.414634,0.471141,0.071385,0.276621,0.227751,0.218462,2026-10-02 05:13:31,151,5.7,0.264286,0,0,74.3243,0.429054,0,0.217391,0.782609,0,0,0,-1,-1,0.110435
Green_YC310_Pro_5B88_261002_051601.csv,2,136,21,17,23797.5,0.05519,4.97696e+06,0.395393,33.65,0.01,0.608333,0.00166633,0.0466139,0.229377,0.00225347,0.770623,0.779475,0.406199,0.466508,0.0692298,0.277602,0.223487,0.214197,2026-10-02 05:16:01,150,5.7,0.264286,0,0,71.1061,0.388826,0,0.0909091,0.909091,0,0,0,-1,-1,0.113636
Green_YC310_Pro_5B88_261002_051831.csv,2,137,22,20,27079.3,0.0683171,4.88286e+06,0.376571,33.63,-0.02,0.605,-0.003333,0.0465115,0.227612,-0.000102419,0.772388,0.774841,0.400718,0.461874,0.0670746,0.277006,0.219972,0.210683,2026-10-02 05:18:31,150,5.6,0.257143,0,0,72.0524,0.400655,0,0.130435,0.869565,0,0,0,-1,-1,0.110435
Green_YC310_Pro_5B88_261002_052100.csv,2,138,22,21,29429.2,0.0777168,5.2922e+06,0.45844,33.63,0,0.605,4.44089e-16,0.0461245,0.22094,-0.000386955,0.77906,0.770137,0.398043,0.459199,0.0811833,0.274026,0.21609,0.206801,2026-10-02 05:21:00,149,5.7,0.264286,0,0,73.0088,0.41261,0,0.391304,0.608696,0,0,0,-1,-1,0.110435
Green_YC310_Pro_5B88_261002_052331.csv,2,139,21,19,34379,0.097516,5.543e+06,0.508599,33.62,-0.01,0.603333,-0.00166667,0.0474325,0.243491,0.001308,0.756509,0.765437,0.395369,0.456525,0.07542,0.274718,0.21235,0.203061,2026-10-02 05:23:31,151,5.6,0.257143,0,0,70.3125,0.378906,0,0.181818,0.772727,0.0454545,0,0,-1,-1,0.109524
Green_YC310_Pro_5B88_261002_052601.csv,2,140,24,12,21890.1,0.0475606,5.63197e+06,0.526393,33.59,-0.03,0.598333,-0.00499967,0.0479888,0.253082,0.000556252,0.746918,0.760743,0.405538,0.466694,0.0745593,0.273323,0.213117,0.203827,2026-10-02 05:26:01,150,5.6,0.257143,0,0,78.9474,0.486843,0,0.36,0.52,0.12,0,0,-1,-1,0.100909
Green_YC310_Pro_5B88_261002_052831.csv,2,141,22,14,25557.2,0.0622289,5.86207e+06,0.572414,33.59,0,0.598333,3.33333e-07,0.0455005,0.21018,-0.00248835,0.78982,0.767562,0.415708,0.473513,0.0786013,0.27247,0.220475,0.211186,2026-10-02 05:28:31,150,5.5,0.25,0,0,74.7452,0.434315,0,0.130435,0.869565,0,0,0,-1,-1,0.106087
Green_YC310_Pro_5B88_261002_053101.csv,2,142,20,18,37410.5,0.109642,5.99229e+06,0.598458,33.57,-0.02,0.595,-0.003333,0.0485245,0.26232,0.00302404,0.73768,0.77417,0.416802,0.474607,0.0831069,0.270467,0.225924,0.216635,2026-10-02 05:31:01,150,5.5,0.25,0,0,67.4916,0.343645,0,0.047619,0.952381,0,0,0,-1,-1,0.119048
Green_YC310_Pro_5B88_261002_053331.csv,2,143,22,18,26432.3,0.0657293,4.91304e+06,0.382608,33.55,-0.02,0.591667,-0.00333333,0.0461748,0.221807,-0.00234968,0.778193,0.78739,0.418889,0.476694,0.0876126,0.268465,0.236251,0.226962,2026-10-02 05:33:31,150,5.5,0.25,0,0,70.5128,0.38141,0,0.173913,0.826087,0,0,0,-1,-1,0.115455
Green_YC310_Pro_5B88_261002_053601.csv,2,144,22,21,26395.8,0.0655832,5.3309e+06,0.466179,33.53,-0.02,0.588333,-0.00333367,0.0445033,0.192988,-0.00167148,0.807012,0.795872,0.421969,0.479774,0.0864996,0.267649,0.243613,0.234323,2026-10-02 05:36:01,150,5.5,0.25,0,0,73.5786,0.419732,0,0.173913,0.826087,0,0,0,-1,-1,0.106957
Green_YC310_Pro_5B88_261002_053831.csv,2,145,23,19,36575.8,0.106303,5.4511e+06,0.490219,33.52,-0.01,0.586667,-0.00166633,0.0453036,0.206786,0.000800265,0.793214,0.796684,0.454963,0.480586,0.0927835,0.265796,0.250199,0.24091,2026-10-02 05:38:31,150,5.4,0.242857,0,0,77.1812,0.464765,0,0.333333,0.666667,0,0,0,-1,-1,0.105833
Green_YC310_Pro_5B88_261002_054100.csv,2,146,24,19,33236.2,0.0929447,5.70208e+06,0.540416,33.51,-0.01,0.585,-0.001667,0.0452989,0.206705,-4.72499e-06,0.793295,0.780277,0.464918,0.490541,0.1024,0.26324,0.23987,0.23058,2026-10-02 05:41:00,149,5.4,0.242857,0,0,78.4314,0.480392,0,0.36,0.6,0.04,0,0,-1,-1,0.103333
Green_YC310_Pro_5B88_261002_054330.csv,2,147,23,22,39352.3,0.117409,5.89951e+06,0.579901,33.5,-0.01,0.583333,-0.00166667,0.0483143,0.258695,0.00301539,0.741305,0.773865,0.46545,0.491073,0.0979748,0.263649,0.235664,0.226375,2026-10-02 05:43:30,150,5.4,0.242857,0,0,76.7519,0.459399,0,0.25,0.75,0,0,0,-1,-1,0.118333
Green_YC310_Pro_5B88_261002_054600.csv,2,148,23,19,26034.1,0.0641364,4.8614e+06,0.37228,33.47,-0.03,0.578333,-0.00499967,0.0437757,0.180443,-0.00453859,0.819557,0.789288,0.45889,0.484513,0.0873649,0.264313,0.246841,0.237552,2026-10-02 05:46:00,150,5.3,0.235714,0,0,77.0089,0.462611,0,0.291667,0.708333,0,0,0,-1,-1,0.100833
Green_YC310_Pro_5B88_261002_054831.csv,2,149,23,16,31762.4,0.0870496,5.25053e+06,0.450106,33.45,-0.02,0.575,-0.003333,0.0443291,0.189985,0.000553412,0.810015,0.807003,0.458943,0.484565,0.0805494,0.264701,0.259785,0.250496,2026-10-02 05:48:31,151,5.2,0.228571,0,0,76.075,0.450938,0,0.333333,0.666667,0,0,0,-1,-1,0.105
Green_YC310_Pro_5B88_261002_055101.csv,2,150,23,21,32615.6,0.0904623,5.46227e+06,0.492454,33.41,-0.04,0.568333,-0.00666667,0.0454067,0.208563,0.00107756,0.791437,0.746559,0.449033,0.474656,0.140005,0.250045,0.217934,0.208644,2026-10-02 05:51:01,150,5.2,0.228571,0,0,77.7027,0.471284,0,0.208333,0.791667,0,0,0,-1,-1,0.111304
Green_YC310_Pro_5B88_261002_055331.csv,2,151,22,12,52047.9,0.168192,6.05576e+06,0.611152,33.3,-0.11,0.55,-0.018333,0.054293,0.361775,0.00888628,0.638225,0.716104,0.437778,0.463401,0.158176,0.240427,0.199636,0.190347,2026-10-02 05:53:31,150,5.3,0.235714,0,0,72.2101,0.402626,0,0,0.909091,0.0909091,0,0,-1,-1,0.120909
Green_YC310_Pro_5B88_261002_055601.csv,2,152,23,12,63968.4,0.215873,6.27519e+06,0.655038,33.24,-0.06,0.54,-0.01,0.0568715,0.406232,0.00257845,0.593768,0.705334,0.450287,0.475909,0.146613,0.239716,0.194217,0.184928,2026-10-02 05:56:01,150,5.6,0.257143,0,0,77.9661,0.474576,0,0.0416667,0.75,0.208333,0,0,-1,-1,0.118333
Green_YC310_Pro_5B88_261002_055836.csv,2,153,22,4,30918.7,0.083675,5.0534e+06,0.41068,33.23,-0.01,0.538333,-0.00166667,0.053259,0.343948,-0.00361253,0.656052,0.697541,0.473166,0.498789,0.13505,0.241632,0.187651,0.178362,2026-10-02 05:58:36,155,5.7,0.264286,0,0,75.9494,0.449367,0,0.333333,0.444444,0.0555556,0.166667,0,-1,-1,0.1
Green_YC310_Pro_5B88_261002_060102.csv,2,154,29,4,23556.6,0.0542264,5.45965e+06,0.491931,33.21,-0.02,0.535,-0.003333,0.044489,0.192741,-0.00877001,0.807259,0.673043,0.488105,0.513728,0.0861246,0.250912,0.163618,0.154328,2026-10-02 06:01:02,146,5.6,0.257143,0,0,96.3455,0.704319,0,0.481481,0.481481,0.037037,0,0,-1,-1,0.0930435
Green_YC310_Pro_5B88_261002_060335.csv,2,155,24,5,27274.4,0.0690977,5.24737e+06,0.449474,33.16,-0.05,0.526667,-0.00833333,0.0526426,0.33332,0.00815357,0.66668,0.698383,0.503044,0.528667,0.054548,0.254953,0.190089,0.1808,2026-10-02 06:03:35,153,5.4,0.242857,0,0,81.6327,0.520409,0,0.3,0.55,0.1,0.05,0,-1,-1,0.1
Green_YC310_Pro_5B88_261002_060602.csv,2,156,25,14,16442.5,0.0257701,5.28163e+06,0.456326,33.11,-0.05,0.518333,-0.00833367,0.048644,0.26438,-0.00399858,0.73562,0.724906,0.508753,0.534376,0.0555401,0.252116,0.217958,0.208668,2026-10-02 06:06:02,147,5.4,0.242857,0,0,85.1305,0.564131,0,0.2,0.8,0,0,0,-1,-1,0.118261
Green_YC310_Pro_5B88_261002_060831.csv,2,157,24,10,19371.4,0.0374854,5.21898e+06,0.443796,33.03,-0.08,0.505,-0.013333,0.0483486,0.259286,-0.000295441,0.740714,0.654988,0.497782,0.523405,0.0717525,0.244488,0.150377,0.141087,2026-10-02 06:08:31,149,5.4,0.242857,0,0,78.346,0.479325,0,0.181818,0.772727,0.0454545,0,0,-1,-1,0.104706
Green_YC310_Pro_5B88_261002_061102.csv,2,158,23,8,39433.8,0.117735,5.36134e+06,0.472268,33,-0.03,0.5,-0.005,0.0623481,0.500656,0.0139995,0.499344,0.602887,0.458659,0.484282,0.0901918,0.239018,0.0992653,0.0899758,2026-10-02 06:11:02,151,5.5,0.25,0,0,75.9912,0.44989,0,0.0454545,0.545455,0.272727,0.136364,0,-1,-1,0.1225
Green_YC310_Pro_5B88_261002_061330.csv,2,159,23,8,30272,0.0810878,5.35793e+06,0.471586,33.01,0.01,0.501667,0.00166667,0.0614095,0.484474,-0.00093863,0.515526,0.568604,0.46273,0.488353,0.100559,0.237355,0.0646425,0.055353,2026-10-02 06:13:30,148,5.7,0.264286,0,0,75.7409,0.446761,0,0.181818,0.5,0.181818,0.136364,0,-1,-1,0.118667
Green_YC310_Pro_5B88_261002_061601.csv,2,160,23,14,31050.6,0.0842026,5.53601e+06,0.507202,33,-0.01,0.5,-0.001667,0.0543139,0.362137,-0.00709558,0.637863,0.574984,0.466802,0.492425,0.102853,0.236344,0.0713601,0.0620706,2026-10-02 06:16:01,151,5.9,0.278571,0,0,76.7519,0.459399,0,0.0869565,0.782609,0.130435,0,0,-1,-1,0.12
Green_YC310_Pro_5B88_261002_061831.csv,2,161,23,6,41154.8,0.124619,5.91501e+06,0.583003,33.01,0.01,0.501667,0.00166667,0.056698,0.403242,0.00238414,0.596758,0.581365,0.464426,0.490049,0.111517,0.23504,0.0774137,0.0681242,2026-10-02 06:18:31,150,6.1,0.292857,0,0,78.9474,0.486843,0,0.15,0.5,0.3,0.05,0,-1,-1,0.121667
Green_YC310_Pro_5B88_261002_062104.csv,2,162,22,8,36770.1,0.10708,5.78009e+06,0.556018,33.03,0.02,0.505,0.003333,0.0608677,0.475133,0.00416973,0.524867,0.564985,0.452959,0.478582,0.116981,0.234938,0.0609533,0.0516639,2026-10-02 06:21:04,153,6.1,0.292857,0,0,75.1708,0.439635,0,0.130435,0.478261,0.304348,0.0869565,0,-1,-1,0.123077
Green_YC310_Pro_5B88_261002_062331.csv,2,163,23,8,38289.4,0.113157,5.83056e+06,0.566113,33.07,0.04,0.511667,0.00666667,0.0571641,0.411278,-0.00370356,0.588722,0.569645,0.427252,0.452875,0.119245,0.236562,0.05766,0.0483706,2026-10-02 06:23:31,147,6.1,0.292857,0,0,75.6579,0.445724,0,0.047619,0.809524,0.142857,0,0,-1,-1,0.132222
Green_YC310_Pro_5B88_261002_062601.csv,2,164,21,11,42852.2,0.131409,6.17799e+06,0.635598,33.08,0.01,0.513333,0.00166633,0.0578864,0.42373,0.000722267,0.57627,0.58262,0.420317,0.44594,0.116596,0.237646,0.0644049,0.0551155,2026-10-02 06:26:01,150,6,0.285714,0,0,70.2341,0.377926,0,0.0952381,0.666667,0.190476,0.047619,0,-1,-1,0.136667
Green_YC310_Pro_5B88_261002_062832.csv,2,165,23,8,40282.3,0.121129,6.30776e+06,0.661551,33.06,-0.02,0.51,-0.003333,0.0626286,0.505493,0.00474217,0.494507,0.567021,0.437302,0.462925,0.113948,0.237155,0.0605307,0.0512412,2026-10-02 06:28:32,151,5.9,0.278571,0,0,76.6667,0.458334,0,0.157895,0.421053,0.368421,0.0526316,0,-1,-1,0.134286
Green_YC310_Pro_5B88_261002_063102.csv,2,166,24,5,34122,0.0964879,5.23216e+06,0.446432,33.15,0.09,0.525,0.015,0.0615341,0.486623,-0.00109445,0.513377,0.548825,0.441129,0.466752,0.117175,0.241203,0.0469161,0.0376267,2026-10-02 06:31:02,150,5.9,0.278571,0,0,79.7342,0.496677,0,0.0833333,0.541667,0.291667,0.0833333,0,-1,-1,0.126667
Green_YC310_Pro_5B88_261002_063333.csv,2,167,22,11,45272.6,0.14109,5.09092e+06,0.418184,33.18,0.03,0.53,0.005,0.057709,0.420673,-0.00382506,0.579327,0.539967,0.444957,0.47058,0.117855,0.242636,0.0419692,0.0387488,2026-10-02 06:33:33,151,5.9,0.278571,0,0,75.9494,0.449367,0,0.0909091,0.727273,0.136364,0.0454545,0,-1,-1,0.127059
Green_YC310_Pro_5B88_261002_063601.csv,2,168,21,8,41582.1,0.126328,5.4207e+06,0.48414,33.22,0.04,0.536667,0.00666667,0.0630155,0.512164,0.00530654,0.487836,0.536179,0.395217,0.466792,0.115986,0.245132,0.0144879,0.0601611,2026-10-02 06:36:01,148,5.9,0.278571,0,0,71.1061,0.388826,0,0,0.636364,0.272727,0.0909091,0,-1,-1,0.136667
Green_YC310_Pro_5B88_261002_063832.csv,2,169,20,14,30134.7,0.0805389,5.30983e+06,0.461966,33.18,-0.04,0.53,-0.006667,0.0571064,0.410284,-0.00590905,0.589716,0.546437,0.402294,0.473869,0.09398,0.247677,0.026043,0.0717162,2026-10-02 06:38:32,151,5.8,0.271429,0,0,67.7966,0.347457,0,0,0.85,0.15,0,0,-1,-1,0.132941
Green_YC310_Pro_5B88_261002_064101.csv,2,170,23,6,28768.3,0.0750731,5.85957e+06,0.571915,33.21,0.03,0.535,0.005,0.0551392,0.376365,-0.00196722,0.623635,0.559463,0.409371,0.480945,0.102776,0.247396,0.0366938,0.0823669,2026-10-02 06:41:01,149,5.8,0.271429,0,0,75.9912,0.44989,0,0.0454545,0.727273,0.227273,0,0,-1,-1,0.123636
Green_YC310_Pro_5B88_261002_064331.csv,2,171,23,5,35549.6,0.102199,5.59866e+06,0.519733,33.22,0.01,0.536667,0.00166667,0.0558618,0.388824,0.000722598,0.611176,0.564187,0.419201,0.485669,0.111573,0.246064,0.041903,0.0875761,2026-10-02 06:43:31,150,5.8,0.271429,0,0,77.7027,0.471284,0,0.15,0.55,0.3,0,0,-1,-1,0.138571
Green_YC310_Pro_5B88_261002_064605.csv,2,172,21,10,47017.9,0.148072,5.68567e+06,0.537134,33.24,0.02,0.54,0.003333,0.061387,0.484086,0.00552517,0.515914,0.569096,0.417726,0.484194,0.120331,0.245266,0.0445249,0.0901981,2026-10-02 06:46:05,154,5.8,0.271429,0,0,70.1559,0.376949,0,0,0.619048,0.380952,0,0,-1,-1,0.137143
Green_YC310_Pro_5B88_261002_064832.csv,2,173,23,5,40927.3,0.123709,6.0198e+06,0.60396,33.25,0.01,0.541667,0.00166667,0.0545739,0.36662,-0.00681307,0.63338,0.587206,0.422961,0.489429,0.129089,0.243942,0.0572602,0.102933,2026-10-02 06:48:32,147,5.7,0.264286,0,0,75.6579,0.445724,0,0.047619,0.809524,0.142857,0,0,-1,-1,0.119
Green_YC310_Pro_5B88_261002_065100.csv,2,174,23,8,38871.3,0.115485,5.59538e+06,0.519075,33.33,0.08,0.555,0.013333,0.0584734,0.433852,0.0038995,0.566148,0.594327,0.460087,0.496551,0.110463,0.252079,0.0636859,0.109359,2026-10-02 06:51:00,148,5.6,0.257143,0,0,73.8758,0.423447,0,0.181818,0.363636,0.409091,0.0454545,0,-1,-1,0.145455
Green_YC310_Pro_5B88_261002_065332.csv,2,175,24,5,31708.5,0.0868342,5.66325e+06,0.53265,33.42,0.09,0.57,0.015,0.049895,0.285949,-0.00857837,0.714051,0.577616,0.466089,0.502553,0.0917242,0.260765,0.0502839,0.095957,2026-10-02 06:53:32,152,5.4,0.242857,0,0,83.8184,0.54773,0.047619,0.238095,0.571429,0.142857,0,0,-1,-1,0.13625
Green_YC310_Pro_5B88_261002_065601.csv,2,176,22,10,28213.3,0.0728534,5.57775e+06,0.515551,33.54,0.12,0.59,0.02,0.0610893,0.478953,0.0111943,0.521047,0.546842,0.427091,0.471779,0.100292,0.265262,0.0215726,0.0672458,2026-10-02 06:56:01,149,5.3,0.235714,0,0,71.7391,0.396739,0,0,0.681818,0.318182,0,0,-1,-1,0.133333
Green_YC310_Pro_5B88_261002_065832.csv,2,177,20,15,44074.1,0.136297,5.74199e+06,0.548398,33.69,0.15,0.615,0.025,0.0603588,0.466359,-0.000730505,0.533641,0.51901,0.401589,0.446278,0.101267,0.272938,-0.00628694,0.0393862,2026-10-02 06:58:32,151,5.4,0.242857,0,0,64.5161,0.306451,0,0,0.619048,0.380952,0,0,-1,-1,0.137
Green_YC310_Pro_5B88_261002_070101.csv,2,178,20,15,43737.3,0.134949,5.97378e+06,0.594756,33.75,0.06,0.625,0.01,0.0630227,0.512288,0.00266389,0.487712,0.530289,0.376087,0.420776,0.0946504,0.277489,-0.00430569,0.0413675,2026-10-02 07:01:01,149,5.7,0.264286,0,0,66.2252,0.327815,0,0,0.619048,0.380952,0,0,-1,-1,0.13619
Green_YC310_Pro_5B88_261002_070331.csv,2,179,23,9,23250.9,0.0530038,5.06933e+06,0.413866,33.75,0,0.625,0,0.0558087,0.387909,-0.00721397,0.612091,0.563269,0.380793,0.425482,0.0851544,0.279494,0.0193881,0.0650612,2026-10-02 07:03:31,150,5.8,0.271429,0,0,75.6579,0.445724,0,0,0.857143,0.142857,0,0,-1,-1,0.124762
Green_YC310_Pro_5B88_261002_070602.csv,2,180,20,13,36952.3,0.107809,5.33521e+06,0.467041,33.83,0.08,0.638333,0.0133333,0.0599215,0.458819,0.0041128,0.541181,0.596309,0.369207,0.413896,0.0863885,0.283437,0.0395597,0.0852329,2026-10-02 07:06:02,151,5.8,0.271429,0,0,65.6455,0.320569,0,0,0.714286,0.285714,0,0,-1,-1,0.128571
Green_YC310_Pro_5B88_261002_070831.csv,2,181,22,16,29233.1,0.0769322,5.39166e+06,0.478332,33.88,0.05,0.646667,0.00833367,0.0512447,0.309219,-0.00867683,0.690781,0.615646,0.346195,0.390884,0.0990461,0.283392,0.0521014,0.0977745,2026-10-02 07:08:31,149,5.9,0.278571,0,0,71.1974,0.389968,0,0.0869565,0.869565,0.0434783,0,0,-1,-1,0.120909
Green_YC310_Pro_5B88_261002_071104.csv,2,182,20,13,43627.7,0.134511,5.47562e+06,0.495124,33.91,0.03,0.651667,0.00499967,0.0652826,0.551252,0.0140379,0.448748,0.592885,0.328048,0.372737,0.116079,0.281371,0.0359031,0.0815763,2026-10-02 07:11:04,153,6,0.285714,0,0,66.2252,0.327815,0,0,0.55,0.45,0,0,-1,-1,0.134
Green_YC310_Pro_5B88_261002_071333.csv,2,183,19,16,39590.2,0.118361,5.63525e+06,0.52705,33.88,-0.03,0.646667,-0.00500033,0.0664651,0.57164,0.00118254,0.42836,0.564887,0.304616,0.349305,0.124708,0.277973,0.0177049,0.0633781,2026-10-02 07:13:33,149,5.9,0.278571,0,0,61.2903,0.266129,0,0,0.4,0.6,0,0,-1,-1,0.144
Green_YC310_Pro_5B88_261002_071832.csv,2,184,20,17,41900.2,0.127601,5.8401e+06,0.568019,33.87,-0.01,0.645,-0.001667,0.0543497,0.362754,-0.0121154,0.637246,0.556561,0.297304,0.341993,0.124996,0.277387,0.0122148,0.0578879,2026-10-02 07:18:32,299,5.8,0.271429,0,0,65.5738,0.319673,0,0,0.904762,0.0952381,0,0,-1,-1,0.126667
Green_YC310_Pro_5B88_261002_072101.csv,2,185,19,15,41604.7,0.126419,6.04673e+06,0.609346,33.83,-0.04,0.638333,-0.00666667,0.0570863,0.409937,0.00273665,0.590063,0.560926,0.30611,0.346357,0.127087,0.274843,0.0164683,0.0621415,2026-10-02 07:21:01,149,5.7,0.264286,0,0,63.7584,0.29698,0,0,0.789474,0.210526,0,0,-1,-1,0.131579
Green_YC310_Pro_5B88_261002_072332.csv,2,186,19,14,41976.9,0.127908,6.42834e+06,0.685668,33.76,-0.07,0.626667,-0.0116663,0.0596405,0.453974,0.00255421,0.546026,0.576329,0.336418,0.361761,0.120343,0.272589,0.0293664,0.0750396,2026-10-02 07:23:32,151,5.7,0.264286,0,0,63.4038,0.292547,0,0,0.75,0.25,0,0,-1,-1,0.132
Green_YC310_Pro_5B88_261002_072601.csv,2,187,22,7,37088.1,0.108353,5.02991e+06,0.405982,33.78,0.02,0.63,0.003333,0.0551643,0.376798,-0.00447621,0.623202,0.574433,0.346956,0.372298,0.106703,0.27652,0.027462,0.0731351,2026-10-02 07:26:01,149,5.6,0.257143,0,0,72.8477,0.410596,0,0.210526,0.526316,0.210526,0.0526316,0,-1,-1,0.134667
Green_YC310_Pro_5B88_261002_072837.csv,2,188,18,17,30962,0.0838479,4.90969e+06,0.381938,33.7,-0.08,0.616667,-0.0133333,0.0600768,0.461497,0.00491252,0.538503,0.554069,0.316189,0.351935,0.0918611,0.27545,0.015574,0.0612471,2026-10-02 07:28:37,156,5.8,0.271429,0,0,61.9266,0.274083,0,0,0.684211,0.315789,0,0,-1,-1,0.138947
Green_YC310_Pro_5B88_261002_073101.csv,2,189,19,17,30845.6,0.0833824,4.91344e+06,0.382687,33.68,-0.02,0.613333,-0.00333367,0.0631837,0.515063,0.00310685,0.484937,0.511869,0.282366,0.318112,0.0893411,0.274931,-0.0136473,0.0394028,2026-10-02 07:31:01,144,5.6,0.257143,0,0,64.4796,0.305995,0,0,0.7,0.3,0,0,-1,-1,0.134
Green_YC310_Pro_5B88_261002_073331.csv,2,190,18,17,33195,0.0927798,4.92156e+06,0.384311,33.73,0.05,0.621667,0.00833367,0.0625071,0.503398,-0.000676642,0.496602,0.483341,0.268078,0.303825,0.0836067,0.27877,-0.0358291,0.0542076,2026-10-02 07:33:31,150,5.6,0.257143,0,0,59.4714,0.243393,0,0,0.666667,0.333333,0,0,-1,-1,0.14
Green_YC310_Pro_5B88_261002_073602.csv,2,191,18,17,26371.3,0.065485,4.98521e+06,0.397042,33.79,0.06,0.631667,0.00999967,0.0642217,0.53296,0.0017146,0.46704,0.468485,0.254848,0.290594,0.0826497,0.282125,-0.0498727,0.040164,2026-10-02 07:36:02,151,5.5,0.25,0,0,60.6061,0.257576,0,0,0.631579,0.368421,0,0,-1,-1,0.132632
Green_YC310_Pro_5B88_261002_073831.csv,2,192,18,17,36712.2,0.106849,5.46774e+06,0.493548,33.86,0.07,0.643333,0.0116663,0.0656848,0.558187,0.00146314,0.441813,0.446188,0.265483,0.30123,0.0910015,0.284039,-0.0647858,0.0461778,2026-10-02 07:38:31,149,5.5,0.25,0,0,61.086,0.263575,0,0,0.526316,0.473684,0,0,-1,-1,0.134737
Green_YC310_Pro_5B88_261002_074101.csv,2,193,19,17,35573.9,0.102296,5.46811e+06,0.493622,33.93,0.07,0.655,0.011667,0.0663867,0.570288,0.000701924,0.429712,0.443188,0.267544,0.303291,0.10067,0.285676,-0.0682496,0.042714,2026-10-02 07:41:01,150,5.6,0.257143,0,0,62.0239,0.275299,0,0,0.578947,0.421053,0,0,-1,-1,0.133684
Green_YC310_Pro_5B88_261002_074333.csv,2,194,18,17,33622.9,0.0944918,5.70982e+06,0.541963,34,0.07,0.666667,0.0116667,0.0601635,0.462991,-0.00622323,0.537009,0.446295,0.272183,0.306398,0.105618,0.28831,-0.0660362,0.0449274,2026-10-02 07:43:33,152,5.6,0.257143,0,0,60.9481,0.261851,0,0,0.842105,0.157895,0,0,-1,-1,0.135789
Green_YC310_Pro_5B88_261002_074602.csv,2,195,19,18,40422.9,0.121692,5.82668e+06,0.565337,34.08,0.08,0.68,0.013333,0.0653178,0.551859,0.0051543,0.448141,0.453856,0.279398,0.313613,0.107683,0.292078,-0.05928,0.0516836,2026-10-02 07:46:02,149,5.7,0.264286,0,0,62.8445,0.285556,0,0,0.6,0.4,0,0,-1,-1,0.135
Green_YC310_Pro_5B88_261002_074833.csv,2,196,19,18,33214.1,0.0928564,4.90683e+06,0.381365,34.15,0.07,0.691667,0.0116667,0.0652465,0.55063,-7.12691e-05,0.44937,0.459762,0.318938,0.319519,0.107933,0.295703,-0.038725,0.0722387,2026-10-02 07:48:33,151,5.7,0.264286,0,0,63.263,0.290787,0,0,0.6,0.4,0,0,-1,-1,0.132
Green_YC310_Pro_5B88_261002_075103.csv,2,197,22,12,41081.7,0.124327,5.41113e+06,0.482227,34.22,0.07,0.703333,0.0116663,0.0682679,0.602722,0.00302138,0.397278,0.453212,0.331241,0.331823,0.0993588,0.301192,-0.0411417,0.069822,2026-10-02 07:51:03,150,5.8,0.271429,0,0,70.4376,0.38047,0,0,0.444444,0.555556,0,0,-1,-1,0.133333
Green_YC310_Pro_5B88_261002_075332.csv,2,198,19,17,25490.7,0.061963,5.31633e+06,0.463266,34.27,0.05,0.711667,0.00833367,0.0664575,0.571508,-0.00181045,0.428492,0.454106,0.331323,0.331904,0.0808931,0.307719,-0.0419602,0.0690035,2026-10-02 07:53:32,149,5.8,0.271429,0,0,63.5452,0.294315,0,0,0.526316,0.473684,0,0,-1,-1,0.141053
Green_YC310_Pro_5B88_261002_075601.csv,2,199,20,19,24097.3,0.0563894,5.52003e+06,0.504006,34.46,0.19,0.743333,0.0316663,0.0630027,0.511943,-0.00345481,0.488057,0.465641,0.319183,0.319765,0.0566955,0.322813,-0.0425457,0.0684179,2026-10-02 07:56:01,149,5.8,0.271429,0,0,65.2174,0.315217,0,0,0.428571,0.571429,0,0,-1,-1,0.138095
Green_YC310_Pro_5B88_261002_075834.csv,2,200,21,15,22933.5,0.0517342,5.62546e+06,0.525092,34.65,0.19,0.775,0.031667,0.0647484,0.542042,0.00174572,0.457958,0.481503,0.319779,0.320361,0.0600597,0.332087,-0.0368919,0.0740717,2026-10-02 07:58:34,153,5.8,0.271429,0,0,67.5241,0.344051,0,0.0454545,0.5,0.454545,0,0,-1,-1,0.135238
Green_YC310_Pro_5B88_261002_080101.csv,2,201,19,17,27937.3,0.0717494,5.55618e+06,0.511236,34.81,0.16,0.801667,0.0266667,0.0671048,0.582669,0.00235643,0.417331,0.498493,0.325029,0.32561,0.0644066,0.339577,-0.02882,0.0821437,2026-10-02 08:01:01,147,5.7,0.264286,0,0,62.7063,0.283829,0,0,0.15,0.85,0,0,-1,-1,0.142
Green_YC310_Pro_5B88_261002_080342.csv,2,202,20,19,25598.3,0.0623932,5.66211e+06,0.532423,34.95,0.14,0.825,0.023333,0.0587259,0.438205,-0.00837889,0.561795,0.542753,0.334931,0.335513,0.074519,0.344799,-0.00068121,0.110282,2026-10-02 08:03:42,161,5.8,0.271429,0,0,67.4916,0.343645,0,0,0.714286,0.285714,0,0,-1,-1,0.128571
Green_YC310_Pro_5B88_261002_080602.csv,2,203,19,17,35385,0.10154,4.78563e+06,0.357126,35.07,0.12,0.845,0.02,0.0644332,0.536607,0.00570732,0.463393,0.540965,0.329694,0.333725,0.0842751,0.349044,-0.0062185,0.104745,2026-10-02 08:06:02,140,5.8,0.271429,0,0,62.1592,0.27699,0,0,0.578947,0.421053,0,0,-1,-1,0.138947
Green_YC310_Pro_5B88_261002_080832.csv,2,204,19,18,33666.5,0.0946659,4.84021e+06,0.368043,35.07,0,0.845,1.11022e-16,0.0629246,0.510597,-0.00150856,0.489403,0.563909,0.345413,0.349443,0.0888919,0.348069,0.0132674,0.124231,2026-10-02 08:08:32,150,5.8,0.271429,0,0,62.4315,0.280394,0,0,0.65,0.35,0,0,-1,-1,0.131
Green_YC310_Pro_5B88_261002_081101.csv,2,205,23,22,29061,0.0762439,4.76834e+06,0.353668,35.06,-0.01,0.843333,-0.00166667,0.0469894,0.235852,-0.0159352,0.764148,0.611584,0.382086,0.386116,0.0863764,0.348075,0.0589276,0.169891,2026-10-02 08:11:01,149,5.8,0.271429,0,0,77.095,0.463687,0,0.166667,0.833333,0,0,0,-1,-1,0.113333
Green_YC310_Pro_5B88_261002_081331.csv,2,206,23,22,33498.4,0.0939934,4.77339e+06,0.354677,35.04,-0.02,0.84,-0.003333,0.0487516,0.266234,0.00176219,0.733766,0.679581,0.45715,0.454112,0.0745307,0.349526,0.136473,0.247436,2026-10-02 08:13:31,150,5.7,0.264286,0,0,77.9661,0.474576,0,0.0416667,0.958333,0,0,0,-1,-1,0.113333
Green_YC310_Pro_5B88_261002_081601.csv,2,207,24,22,18473.1,0.0338922,4.33282e+06,0.266565,35,-0.04,0.833333,-0.00666667,0.0510933,0.306609,0.00234173,0.693391,0.714184,0.498258,0.488716,0.054994,0.351549,0.177568,0.288532,2026-10-02 08:16:01,150,5.7,0.264286,0,0,80.4469,0.505586,0,0,0.92,0.08,0,0,-1,-1,0.1176
Green_YC310_Pro_5B88_261002_081842.csv,2,208,25,21,24549.6,0.0581983,5.08654e+06,0.417308,35,0,0.833333,3.33333e-07,0.0493316,0.276235,-0.00176168,0.723765,0.715396,0.519143,0.489928,0.051215,0.352347,0.186192,0.297156,2026-10-02 08:18:42,161,5.7,0.264286,0,0,81.1688,0.51461,0,0.08,0.88,0.04,0,0,-1,-1,0.108
Green_YC310_Pro_5B88_261002_082105.csv,2,209,26,18,23642.8,0.0545711,5.17256e+06,0.434513,34.99,-0.01,0.831667,-0.00166633,0.0490262,0.270969,-0.000305375,0.729031,0.739775,0.493371,0.464155,0.0634999,0.349227,0.193381,0.304345,2026-10-02 08:21:05,143,5.8,0.271429,0,0,82.9787,0.537234,0,0.148148,0.814815,0.037037,0,0,-1,-1,0.116667
Green_YC310_Pro_5B88_261002_082333.csv,2,210,23,18,31664.8,0.086659,5.66056e+06,0.532112,34.96,-0.03,0.826667,-0.00500033,0.042702,0.161931,-0.00632418,0.838069,0.748685,0.467599,0.438383,0.0747735,0.34527,0.189524,0.300487,2026-10-02 08:23:33,148,5.8,0.271429,0,0,77.2676,0.465845,0,0.375,0.625,0,0,0,-1,-1,0.0983333
Green_YC310_Pro_5B88_261002_082607.csv,2,211,22,19,27801.3,0.0712051,4.9292e+06,0.385841,34.74,-0.22,0.79,-0.036667,0.0457127,0.21384,0.00301074,0.78616,0.731825,0.413521,0.421523,0.0796619,0.332677,0.160795,0.271759,2026-10-02 08:26:07,154,5.8,0.271429,0,0,73.6607,0.420759,0,0.304348,0.695652,0,0,0,-1,-1,0.105217
Green_YC310_Pro_5B88_261002_082831.csv,2,212,21,16,32394.6,0.0895785,4.85794e+06,0.371588,34.38,-0.36,0.73,-0.06,0.0485081,0.262036,0.00279539,0.737964,0.714965,0.40381,0.411812,0.073592,0.315041,0.293235,0.404198,2026-10-02 08:28:31,144,5.9,0.278571,0,0,70,0.375,0,0.0952381,0.857143,0.047619,0,0,-1,-1,0.112727
Green_YC310_Pro_5B88_261002_083101.csv,2,213,21,17,22814.3,0.0512571,4.782e+06,0.3564,34.07,-0.31,0.678333,-0.0516667,0.0539714,0.356231,0.0054633,0.643769,0.696965,0.394099,0.402101,0.0599923,0.301623,0.395907,0.50687,2026-10-02 08:31:01,150,5.7,0.264286,0,0,70.4698,0.380873,0,0.0454545,0.818182,0.136364,0,0,-1,-1,0.119091
Green_YC310_Pro_5B88_261002_083331.csv,2,214,23,17,17601.5,0.030406,4.79196e+06,0.358393,33.84,-0.23,0.64,-0.038333,0.0488447,0.267839,-0.00512674,0.732161,0.681338,0.412466,0.420468,0.0497388,0.291702,0.462775,0.573739,2026-10-02 08:33:31,150,5.8,0.271429,0,0,74.1139,0.426424,0,0.125,0.833333,0.0416667,0,0,-1,-1,0.106667
Green_YC310_Pro_5B88_261002_083602.csv,2,215,22,20,20353.5,0.0414139,4.70753e+06,0.341505,33.68,-0.16,0.613333,-0.0266667,0.0520234,0.322645,0.00317871,0.677355,0.668084,0.400145,0.408147,0.0394854,0.285459,0.468496,0.57946,2026-10-02 08:36:02,151,5.7,0.264286,0,0,74.4081,0.430101,0,0.0869565,0.826087,0.0869565,0,0,-1,-1,0.116522
Green_YC310_Pro_5B88_261002_083832.csv,2,216,22,20,22141.2,0.0485647,4.70456e+06,0.340912,33.56,-0.12,0.593333,-0.0199997,0.0568153,0.405264,0.00479189,0.594736,0.62189,0.387824,0.395826,0.0366332,0.279755,0.437257,0.54822,2026-10-02 08:38:32,150,5.7,0.264286,0,0,70.8155,0.385194,0,0,0.869565,0.130435,0,0,-1,-1,0.124348
Green_YC310_Pro_5B88_261002_084102.csv,2,217,20,15,19514.8,0.0380593,4.8337e+06,0.36674,33.48,-0.08,0.58,-0.013333,0.0579995,0.42568,0.00118416,0.57432,0.560225,0.37284,0.380842,0.033781,0.276154,0.392115,0.503078,2026-10-02 08:41:02,150,5.6,0.257143,0,0,67.6437,0.345546,0,0,0.666667,0.333333,0,0,-1,-1,0.130476
Green_YC310_Pro_5B88_261002_084331.csv,2,218,21,14,14749.3,0.0189974,5.27816e+06,0.455632,33.39,-0.09,0.565,-0.015,0.0616361,0.488381,0.00363659,0.511619,0.560857,0.357856,0.365858,0.0311956,0.27197,0.391078,0.502041,2026-10-02 08:43:31,149,5.6,0.257143,0,0,68.7023,0.358779,0,0.0454545,0.545455,0.363636,0.0454545,0,-1,-1,0.13
Green_YC310_Pro_5B88_261002_084601.csv,2,219,21,11,16848.3,0.027393,5.22127e+06,0.444253,33.33,-0.06,0.555,-0.01,0.0558879,0.389274,-0.0057482,0.610726,0.562353,0.35766,0.365662,0.0286101,0.269363,0.394013,0.504976,2026-10-02 08:46:01,150,5.6,0.257143,0,0,69.6133,0.370166,0,0.0454545,0.681818,0.272727,0,0,-1,-1,0.125714
Green_YC310_Pro_5B88_261002_084832.csv,2,220,21,18,19555.7,0.0382228,5.51396e+06,0.502791,33.25,-0.08,0.541667,-0.0133333,0.0610961,0.479071,0.00520823,0.520929,0.564715,0.369297,0.368023,0.0297316,0.264923,0.401921,0.512884,2026-10-02 08:48:32,151,5.6,0.257143,0,0,67.5966,0.344957,0,0,0.681818,0.318182,0,0,-1,-1,0.132381
Green_YC310_Pro_5B88_261002_085101.csv,2,221,22,19,18224.9,0.0328997,5.6196e+06,0.52392,33.19,-0.06,0.531667,-0.0100003,0.0612252,0.481296,0.000129089,0.518704,0.584302,0.392767,0.38761,0.0308532,0.261533,0.42525,0.536213,2026-10-02 08:51:01,149,5.6,0.257143,0,0,73.1707,0.414634,0,0,0.695652,0.304348,0,0,-1,-1,0.129091
Green_YC310_Pro_5B88_261002_085336.csv,2,222,22,16,15870.9,0.0234835,5.82039e+06,0.564078,33.26,0.07,0.543333,0.0116663,0.0590776,0.444269,-0.00214757,0.555731,0.603889,0.426701,0.407197,0.0398535,0.263311,0.448192,0.559155,2026-10-02 08:53:36,155,5.5,0.25,0,0,73.4967,0.418709,0,0.0434783,0.73913,0.217391,0,0,-1,-1,0.12087
Green_YC310_Pro_5B88_261002_085602.csv,2,223,23,9,26306,0.0652238,7.19183e+06,0.838366,33.36,0.1,0.56,0.016667,0.0513437,0.310926,-0.00773388,0.689074,0.647387,0.423014,0.40351,0.0467183,0.267116,0.473977,0.58494,2026-10-02 08:56:02,146,5.4,0.242857,0,0,75.7409,0.446761,0,0.0952381,0.857143,0.047619,0,0,-1,-1,0.114286
Green_YC310_Pro_5B88_261002_085833.csv,2,224,20,15,22848,0.0513918,4.85965e+06,0.371931,33.38,0.02,0.563333,0.00333333,0.0552656,0.378544,0.00392186,0.621456,0.68733,0.419327,0.399823,0.0514476,0.267168,0.499378,0.610341,2026-10-02 08:58:33,151,5.5,0.25,0,0,66.0793,0.325991,0,0,0.85,0.15,0,0,-1,-1,0.124762
Green_YC310_Pro_5B88_261002_090101.csv,2,225,22,19,19431.8,0.0377271,4.79029e+06,0.358058,33.38,0,0.563333,3.33333e-07,0.0471226,0.238149,-0.00814295,0.761851,0.677807,0.413746,0.394242,0.0414111,0.269288,0.489574,0.600538,2026-10-02 09:01:01,148,5.5,0.25,0,0,71.3514,0.391892,0,0.26087,0.73913,0,0,0,-1,-1,0.115455
Green_YC310_Pro_5B88_261002_090333.csv,2,226,22,15,18778.6,0.0351145,4.84874e+06,0.369748,33.37,-0.01,0.561667,-0.00166633,0.0482354,0.257335,0.00111283,0.742665,0.650033,0.408165,0.388661,0.033286,0.270478,0.467586,0.57855,2026-10-02 09:03:33,152,5.5,0.25,0,0,73.2519,0.415649,0,0.217391,0.782609,0,0,0,-1,-1,0.110435
Green_YC310_Pro_5B88_261002_090601.csv,2,227,23,16,16754.1,0.0270165,4.82876e+06,0.365753,33.36,-0.01,0.56,-0.001667,0.047136,0.23838,-0.00109938,0.76162,0.666199,0.406152,0.386648,0.0296791,0.270714,0.478209,0.589173,2026-10-02 09:06:01,148,5.5,0.25,0,0,73.955,0.424437,0,0.125,0.833333,0.0416667,0,0,-1,-1,0.114783
Green_YC310_Pro_5B88_261002_090831.csv,2,228,22,14,16726.6,0.0269064,4.84947e+06,0.369895,33.36,0,0.56,-1.11022e-16,0.0500317,0.288304,0.00289565,0.711696,0.698648,0.404139,0.384635,0.0345274,0.26969,0.499873,0.610836,2026-10-02 09:08:31,150,5.4,0.242857,0,0,73.5786,0.419732,0,0.0869565,0.826087,0.0869565,0,0,-1,-1,0.116522
Green_YC310_Pro_5B88_261002_091108.csv,2,229,21,19,20912.6,0.0436502,5.03117e+06,0.406234,33.32,-0.04,0.553333,-0.00666667,0.0551975,0.377371,0.00516584,0.622629,0.603187,0.364658,0.345155,0.0393757,0.266564,0.415704,0.526667,2026-10-02 09:11:08,157,5.6,0.257143,0,0,69.4598,0.368248,0,0.0909091,0.727273,0.181818,0,0,-1,-1,0.121818
Green_YC310_Pro_5B88_261002_091333.csv,2,230,19,18,21892.6,0.0475705,4.9168e+06,0.38336,33.25,-0.07,0.541667,-0.0116663,0.0643511,0.535191,0.0091536,0.464809,0.510731,0.357295,0.337792,0.0483408,0.260993,0.349526,0.46049,2026-10-02 09:13:33,145,5.6,0.257143,0,0,64.4796,0.305995,0,0,0.3,0.7,0,0,-1,-1,0.151
Green_YC310_Pro_5B88_261002_091601.csv,2,231,21,19,23450.5,0.0538018,5.22676e+06,0.445352,33.25,0,0.541667,-3.33333e-07,0.0655143,0.555246,0.00116317,0.444754,0.487661,0.349933,0.330429,0.0476736,0.261134,0.329098,0.440062,2026-10-02 09:16:01,148,5.5,0.25,0,0,69.8448,0.37306,0,0,0.454545,0.545455,0,0,-1,-1,0.138182
Green_YC310_Pro_5B88_261002_091833.csv,2,232,21,20,20219.5,0.0408782,5.30691e+06,0.461383,33.33,0.08,0.555,0.013333,0.0618752,0.492503,-0.0036391,0.507497,0.479865,0.346747,0.327243,0.0487124,0.265118,0.319033,0.429997,2026-10-02 09:18:33,152,5.5,0.25,0,0,71.5096,0.39387,0,0,0.636364,0.363636,0,0,-1,-1,0.132727
Green_YC310_Pro_5B88_261002_092102.csv,2,233,20,19,24137.7,0.0565507,5.29876e+06,0.459751,33.32,-0.01,0.553333,-0.00166667,0.0514897,0.313444,-0.0103855,0.686556,0.507803,0.343561,0.324057,0.0514573,0.264013,0.336898,0.447861,2026-10-02 09:21:02,149,5.5,0.25,0,0,65.4308,0.317885,0,0,1,0,0,0,-1,-1,0.124762
Green_YC310_Pro_5B88_261002_092338.csv,2,234,19,18,25509.1,0.0620364,5.27497e+06,0.454994,33.22,-0.1,0.536667,-0.0166663,0.056261,0.395706,0.00477127,0.604294,0.535742,0.306021,0.286517,0.0505478,0.25895,0.340739,0.451703,2026-10-02 09:23:38,156,5.5,0.25,0,0,64.7727,0.309659,0,0,0.85,0.15,0,0,-1,-1,0.13
Green_YC310_Pro_5B88_261002_092601.csv,2,235,19,14,21934.3,0.0477371,4.88957e+06,0.377913,33.09,-0.13,0.515,-0.021667,0.0637792,0.525332,0.00751825,0.474668,0.526355,0.323703,0.3042,0.0496382,0.252311,0.349512,0.460476,2026-10-02 09:26:01,143,5.6,0.257143,0,0,62.5,0.28125,0,0,0.35,0.65,0,0,-1,-1,0.145263
Green_YC310_Pro_5B88_261002_092837.csv,2,236,21,14,19310,0.0372401,5.01258e+06,0.402516,33.26,0.17,0.543333,0.0283333,0.0593062,0.448211,-0.00447299,0.551789,0.525899,0.344401,0.324897,0.0475839,0.261678,0.353355,0.464319,2026-10-02 09:28:37,156,5.6,0.257143,0,0,70.7071,0.383839,0,0,0.772727,0.227273,0,0,-1,-1,0.135789
Green_YC310_Pro_5B88_261002_093104.csv,2,237,21,14,23968.3,0.0558733,4.9451e+06,0.389021,33.46,0.2,0.576667,0.0333337,0.0593166,0.44839,1.04014e-05,0.55161,0.551241,0.368115,0.348611,0.0480368,0.272092,0.377801,0.488764,2026-10-02 09:31:04,147,5.6,0.257143,0,0,69.6133,0.370166,0,0,0.727273,0.272727,0,0,-1,-1,0.130909
Green_YC310_Pro_5B88_261002_093334.csv,2,238,20,19,22875.8,0.0515034,4.95146e+06,0.390292,33.59,0.13,0.598333,0.0216663,0.0593913,0.449677,7.46862e-05,0.550323,0.546196,0.350621,0.343567,0.0509969,0.278299,0.36015,0.471113,2026-10-02 09:33:34,150,5.6,0.257143,0,0,68.0272,0.35034,0,0,0.761905,0.238095,0,0,-1,-1,0.132381
Green_YC310_Pro_5B88_261002_093606.csv,2,239,24,4,21530.1,0.0461205,5.34451e+06,0.468902,33.71,0.12,0.618333,0.0200003,0.0494921,0.279001,-0.00989922,0.720999,0.545297,0.330414,0.342667,0.0566405,0.283413,0.345107,0.456071,2026-10-02 09:36:06,152,5.7,0.264286,0,0,79.7342,0.496677,0,0.25,0.666667,0.0833333,0,0,-1,-1,0.116522
Green_YC310_Pro_5B88_261002_093834.csv,2,240,21,18,26754,0.0670159,5.24427e+06,0.448853,33.66,-0.05,0.61,-0.008333,0.0534439,0.347137,0.00395185,0.652863,0.541108,0.312523,0.338479,0.062284,0.279594,0.335028,0.445991,2026-10-02 09:38:34,148,5.6,0.257143,0,0,68.1818,0.352272,0,0.0454545,0.863636,0.0909091,0,0,-1,-1,0.127619
Green_YC310_Pro_5B88_261002_094101.csv,2,241,19,18,28428.9,0.0737156,5.29031e+06,0.458062,33.55,-0.11,0.591667,-0.0183333,0.0610513,0.478298,0.00760738,0.521702,0.538048,0.294401,0.335419,0.0785372,0.270381,0.329157,0.44012,2026-10-02 09:41:01,147,5.6,0.257143,0,0,63.4038,0.292547,0,0,0.75,0.25,0,0,-1,-1,0.139
Green_YC310_Pro_5B88_261002_094332.csv,2,242,19,18,33720,0.0948802,5.20187e+06,0.440374,33.47,-0.08,0.578333,-0.0133337,0.0590764,0.444248,-0.0019749,0.555752,0.527617,0.285121,0.326139,0.0865349,0.264488,0.321971,0.432935,2026-10-02 09:43:32,151,5.6,0.257143,0,0,62.1592,0.27699,0,0,0.789474,0.210526,0,0,-1,-1,0.134737
Green_YC310_Pro_5B88_261002_094603.csv,2,243,18,17,31546.8,0.0861873,5.2129e+06,0.442579,33.43,-0.04,0.571667,-0.00666633,0.0636288,0.522737,0.00455236,0.477263,0.523318,0.281976,0.322994,0.0905685,0.261535,0.320187,0.431151,2026-10-02 09:46:03,151,5.6,0.257143,0,0,62.7178,0.283972,0,0,0.631579,0.368421,0,0,-1,-1,0.133684
Green_YC310_Pro_5B88_261002_094832.csv,2,244,19,18,33754.9,0.0950194,5.40276e+06,0.480553,33.41,-0.02,0.568333,-0.00333367,0.0574963,0.417005,-0.00613253,0.582995,0.550791,0.292395,0.333413,0.0842765,0.261812,0.339367,0.450331,2026-10-02 09:48:32,149,5.6,0.257143,0,0,62.6374,0.282967,0,0,0.85,0.15,0,0,-1,-1,0.134
Green_YC310_Pro_5B88_261002_095101.csv,2,245,20,19,25219.9,0.0608798,5.53464e+06,0.506928,33.4,-0.01,0.566667,-0.00166633,0.0588351,0.440088,0.00133881,0.559912,0.576127,0.298435,0.339453,0.0786609,0.262473,0.356901,0.467864,2026-10-02 09:51:01,149,5.6,0.257143,0,0,65.5738,0.319673,0,0,0.761905,0.238095,0,0,-1,-1,0.130476
Green_YC310_Pro_5B88_261002_095331.csv,2,246,18,17,34466.1,0.0978644,5.43625e+06,0.487249,33.38,-0.02,0.563333,-0.00333367,0.0584063,0.432695,-0.00042877,0.567305,0.585475,0.325976,0.348801,0.0746416,0.262271,0.362797,0.473761,2026-10-02 09:53:31,150,5.6,0.257143,0,0,61.7143,0.271429,0,0,0.842105,0.157895,0,0,-1,-1,0.131579
Green_YC310_Pro_5B88_261002_095604.csv,2,247,24,21,28416.2,0.0736647,5.57022e+06,0.514044,33.33,-0.05,0.555,-0.008333,0.0489077,0.268925,-0.00949862,0.731075,0.597405,0.386828,0.360731,0.0651805,0.261641,0.377552,0.488515,2026-10-02 09:56:04,153,5.6,0.257143,0,0,79.2952,0.49119,0,0.08,0.88,0.04,0,0,-1,-1,0.114167
Green_YC310_Pro_5B88_261002_095833.csv,2,248,24,22,18124.1,0.0324965,5.45291e+06,0.490583,33.14,-0.19,0.523333,-0.0316667,0.0472278,0.239962,-0.00167989,0.760038,0.624493,0.420835,0.387819,0.054521,0.253907,0.40703,0.517994,2026-10-02 09:58:33,149,5.6,0.257143,0,0,80.1782,0.502228,0,0.0833333,0.916667,0,0,0,-1,-1,0.110833
Green_YC310_Pro_5B88_261002_100101.csv,2,249,22,21,22315.5,0.0492619,5.45855e+06,0.49171,32.85,-0.29,0.475,-0.048333,0.0529045,0.337836,0.00567669,0.662164,0.648792,0.454843,0.412118,0.0438615,0.240919,0.439968,0.550932,2026-10-02 10:01:01,148,5.6,0.257143,0,0,73.0897,0.413621,0,0,0.956522,0.0434783,0,0,-1,-1,0.127826
Green_YC310_Pro_5B88_261002_100332.csv,2,250,22,20,23806.6,0.0552265,5.67775e+06,0.53555,32.58,-0.27,0.43,-0.045,0.0560223,0.391592,0.00311783,0.608408,0.652837,0.418064,0.37534,0.04507,0.226476,0.447068,0.558032,2026-10-02 10:03:32,151,5.6,0.257143,0,0,73.6607,0.420759,0,0,0.772727,0.227273,0,0,-1,-1,0.125455
Green_YC310_Pro_5B88_261002_100601.csv,2,251,22,18,20506.4,0.0420255,5.66367e+06,0.532734,32.37,-0.21,0.395,-0.035,0.053031,0.340017,-0.00299133,0.659983,0.654574,0.431438,0.377077,0.0462785,0.215185,0.51009,0.621054,2026-10-02 10:06:01,149,5.6,0.257143,0,0,71.3514,0.391892,0,0,0.869565,0.130435,0,0,-1,-1,0.122609
Green_YC310_Pro_5B88_261002_100831.csv,2,252,23,22,20395.9,0.0415836,5.67876e+06,0.535752,32.16,-0.21,0.36,-0.035,0.0506671,0.29926,-0.00236391,0.70074,0.668386,0.444812,0.390451,0.0365663,0.206201,0.585577,0.696541,2026-10-02 10:08:31,150,5.6,0.257143,0,0,75.4923,0.443654,0,0.0416667,0.916667,0.0416667,0,0,-1,-1,0.116667
Green_YC310_Pro_5B88_261002_101102.csv,2,253,24,22,18148.6,0.0325943,5.62317e+06,0.524633,31.99,-0.17,0.331667,-0.0283333,0.0536191,0.350156,0.00295196,0.649844,0.683244,0.500009,0.405309,0.0306947,0.198507,0.642385,0.753348,2026-10-02 10:11:02,151,5.7,0.264286,0,0,79.9112,0.49889,0,0.04,0.84,0.12,0,0,-1,-1,0.1184
Green_YC310_Pro_5B88_261002_101342.csv,2,254,26,14,14476.6,0.0179062,5.54704e+06,0.509407,31.84,-0.15,0.306667,-0.0250003,0.0488222,0.267452,-0.00479689,0.732548,0.678928,0.510323,0.415622,0.0244928,0.191934,0.66392,0.774883,2026-10-02 10:13:42,160,5.7,0.264286,0,0,84.5987,0.557484,0,0.307692,0.653846,0.0384615,0,0,-1,-1,0.1152
Green_YC310_Pro_5B88_261002_101602.csv,2,255,23,14,16219.3,0.0248774,5.40376e+06,0.480751,31.69,-0.15,0.281667,-0.0250003,0.0564652,0.399228,0.00764305,0.600772,0.661433,0.525602,0.430902,0.0220072,0.184577,0.676758,0.787721,2026-10-02 10:16:02,140,5.7,0.264286,0,0,77.8781,0.473476,0,0.0434783,0.782609,0.173913,0,0,-1,-1,0.1275
Green_YC310_Pro_5B88_261002_101836.csv,2,256,26,15,15092,0.0203679,6.10465e+06,0.620931,31.66,-0.03,0.276667,-0.00500033,0.0500349,0.28836,-0.00643032,0.71164,0.65491,0.534088,0.439387,0.0338984,0.180489,0.67542,0.786383,2026-10-02 10:18:36,154,5.7,0.264286,0,0,87.8378,0.597973,0,0.0869565,0.913043,0,0,0,-1,-1,0.116667
Green_YC310_Pro_5B88_261002_102103.csv,2,257,23,5,27495.1,0.0699805,5.12724e+06,0.425449,31.72,0.06,0.286667,0.00999967,0.0567658,0.404411,0.00673091,0.595589,0.700403,0.530368,0.435667,0.0453341,0.181228,0.703024,0.813987,2026-10-02 10:21:03,147,5.4,0.242857,0,0,77.3543,0.466929,0,0.2,0.55,0.25,0,0,-1,-1,0.122353
Green_YC310_Pro_5B88_261002_102335.csv,2,258,24,3,24303.3,0.0572132,5.15458e+06,0.430917,31.73,0.01,0.288333,0.00166633,0.03918,0.101207,-0.0175858,0.898793,0.786301,0.526202,0.431501,0.045654,0.181686,0.761751,0.872715,2026-10-02 10:23:35,152,5.4,0.242857,0,0,78.4314,0.480392,0,0.6875,0.3125,0,0,0,-1,-1,0.0853333
Green_YC310_Pro_5B88_261002_102602.csv,2,259,27,13,12442.1,0.00976823,5.01077e+06,0.402154,31.91,0.18,0.318333,0.0300003,0.0476922,0.24797,0.00851224,0.75203,0.825411,0.580987,0.470612,0.0255832,0.195383,0.789981,0.900945,2026-10-02 10:26:02,147,5.8,0.271429,0,0,90.5028,0.631285,0,0.173913,0.826087,0,0,0,-1,-1,0.105455
Green_YC310_Pro_5B88_261002_102831.csv,2,260,27,2,19410.1,0.0376404,5.31575e+06,0.463149,32.09,0.18,0.348333,0.0300003,0.0447216,0.196752,-0.00297059,0.803248,0.825411,0.631285,0.520909,0.00976823,0.208181,0.792536,0.9035,2026-10-02 10:28:31,149,5.8,0.271429,0,0,89.6018,0.620022,0,0.52381,0.333333,0.142857,0,0,-1,-1,0.0815385
Green_YC310_Pro_5B88_261002_103102.csv,2,261,26,2,31394.3,0.0855773,5.38976e+06,0.477953,32.3,0.21,0.383333,0.0350003,0.0538559,0.35424,0.00913435,0.64576,0.825411,0.631285,0.520909,0.00976823,0.219216,0.782595,0.893559,2026-10-02 10:31:02,151,6,0.285714,0,0,88.6364,0.607955,0,0.2,0.6,0.2,0,0,-1,-1,0.121538
Green_YC310_Pro_5B88_261002_103331.csv,2,262,21,1,24805.1,0.0592203,5.57024e+06,0.514048,32.5,0.2,0.416667,0.0333337,0.0439299,0.183102,-0.00992598,0.816898,0.825411,0.631285,0.520909,0.0866367,0.213494,0.774213,0.885177,2026-10-02 10:33:31,149,6.1,0.292857,0,0,69.6133,0.370166,0,0.384615,0.615385,0,0,0,-1,-1,0.115556
Green_YC310_Pro_5B88_261002_103600.csv,2,263,18,1,33761.3,0.095045,5.32374e+06,0.464748,32.7,0.2,0.45,0.033333,0.0558473,0.388574,0.0119174,0.611426,0.825411,0.631285,0.520909,0.00976823,0.240236,0.76689,0.877853,2026-10-02 10:36:00,149,6,0.285714,0,0,69.7674,0.372092,0,0.3,0.4,0.3,0,0,-1,-1,0.144
Green_YC310_Pro_5B88_261002_103830.csv,2,264,22,1,33631,0.0945241,5.40084e+06,0.480168,32.79,0.09,0.465,0.015,0.0564455,0.398889,0.000598249,0.601111,0.825411,0.631285,0.520909,0.00976823,0.244965,0.763939,0.874903,2026-10-02 10:38:30,150,5.9,0.278571,0,0,73.3333,0.416666,0,0.111111,0.666667,0.222222,0,0,-1,-1,0.102
Green_YC310_Pro_5B88_261002_104100.csv,2,265,26,2,22792.9,0.0511718,5.20314e+06,0.440628,32.75,-0.04,0.458333,-0.00666667,0.0421823,0.152971,-0.0142632,0.847029,0.795724,0.633388,0.523013,0.010738,0.242659,0.745037,0.856,2026-10-02 10:41:00,150,6,0.285714,0,0,84.8749,0.560936,0,0.5,0.45,0.05,0,0,-1,-1,0.0976471
Green_YC310_Pro_5B88_261002_104330.csv,2,266,28,7,13169.4,0.0126776,4.89206e+06,0.378411,32.87,0.12,0.478333,0.0200003,0.0460675,0.219957,0.00388522,0.780043,0.762508,0.622372,0.511996,0.0419129,0.242382,0.714886,0.82585,2026-10-02 10:43:30,150,5.9,0.278571,0,0,91.0076,0.637595,0,0.269231,0.730769,0,0,0,-1,-1,0.105714
Green_YC310_Pro_5B88_261002_104601.csv,2,267,22,24,35823.3,0.103293,5.22913e+06,0.445826,33.04,0.17,0.506667,0.0283337,0.0493297,0.276202,0.00326221,0.723798,0.760192,0.611355,0.50968,0.0486981,0.249882,0.704609,0.815572,2026-10-02 10:46:01,151,5.8,0.271429,0,0,74.9149,0.436436,0,0.117647,0.764706,0.117647,0,0,-1,-1,0.12
Green_YC310_Pro_5B88_261002_104830.csv,2,268,25,7,17894.6,0.0315784,4.94885e+06,0.389769,33.15,0.11,0.525,0.018333,0.042953,0.166258,-0.00637673,0.833742,0.757876,0.590118,0.507365,0.0554833,0.25423,0.692946,0.803909,2026-10-02 10:48:30,149,6,0.285714,0,0,85.9107,0.573884,0.0526316,0.421053,0.473684,0.0526316,0,0,-1,-1,0.1
Green_YC310_Pro_5B88_261002_105100.csv,2,269,26,2,23826.2,0.0553049,5.11112e+06,0.422224,33.28,0.13,0.546667,0.0216667,0.046311,0.224156,0.00335802,0.775844,0.754954,0.58087,0.504443,0.0470056,0.262851,0.684932,0.795896,2026-10-02 10:51:00,150,6,0.285714,0,0,85.1528,0.56441,0,0.421053,0.526316,0.0526316,0,0,-1,-1,0.0822222
Green_YC310_Pro_5B88_261002_105330.csv,2,270,24,3,29465,0.07786,4.94416e+06,0.388833,33.48,0.2,0.58,0.033333,0.0455044,0.210249,-0.000806564,0.789751,0.767159,0.575939,0.499512,0.0568832,0.271275,0.687942,0.798906,2026-10-02 10:53:30,150,6.2,0.3,0,0,84.014,0.550175,0.0555556,0.444444,0.444444,0.0555556,0,0,-1,-1,0.0985714
Green_YC310_Pro_5B88_261002_105600.csv,2,271,26,3,25302.8,0.0612113,4.83055e+06,0.366111,33.61,0.13,0.601667,0.0216667,0.0456059,0.211998,0.000101478,0.788002,0.783635,0.576814,0.500386,0.0667609,0.276021,0.6974,0.808364,2026-10-02 10:56:00,150,6.2,0.3,0,0,86.6667,0.583334,0.0588235,0.176471,0.705882,0.0588235,0,0,-1,-1,0.0933333
Green_YC310_Pro_5B88_261002_105831.csv,2,272,25,2,44785.3,0.139141,4.88077e+06,0.376155,33.59,-0.02,0.598333,-0.00333367,0.0398295,0.112406,-0.00577638,0.887594,0.793388,0.577688,0.501261,0.0743989,0.273357,0.70463,0.815594,2026-10-02 10:58:31,151,6.2,0.3,0,0,82.0569,0.525711,0,0.588235,0.411765,0,0,0,-1,-1,0.0769231
Green_YC310_Pro_5B88_261002_110102.csv,2,273,26,6,35193.4,0.100774,4.92619e+06,0.385239,33.51,-0.08,0.585,-0.013333,0.043948,0.183415,0.00411854,0.816585,0.790026,0.595173,0.518745,0.0663803,0.270846,0.706859,0.817823,2026-10-02 11:01:02,151,6.4,0.314286,0,0,85.7143,0.571429,0,0.428571,0.571429,0,0,0,-1,-1,0.0963636
Green_YC310_Pro_5B88_261002_110333.csv,2,274,28,4,14577.7,0.018311,4.46547e+06,0.293093,33.15,-0.36,0.525,-0.06,0.0472239,0.239895,0.00327589,0.760105,0.791113,0.630756,0.519833,0.0583617,0.253622,0.970564,1,2026-10-02 11:03:33,151,6.8,0.342857,0,0,92.8177,0.660221,0,0.391304,0.478261,0.0869565,0.0434783,0,-1,-1,0.0830769
Green_YC310_Pro_5B88_261002_110602.csv,2,275,29,10,13987.3,0.0159493,4.403e+06,0.280601,33.01,-0.14,0.501667,-0.0233333,0.0433058,0.172342,-0.00391807,0.827658,0.801622,0.661212,0.530341,0.047634,0.24853,0.997605,1,2026-10-02 11:06:02,149,7.1,0.364286,0,0,92.8495,0.660619,0,0.555556,0.407407,0.037037,0,0,-1,-1,0.085
Green_YC310_Pro_5B88_261002_110831.csv,2,276,28,6,21846.2,0.0473848,4.56845e+06,0.313689,32.87,-0.14,0.478333,-0.0233337,0.0436324,0.177972,0.00032659,0.822028,0.809362,0.662929,0.532058,0.0369063,0.243439,1.0072,1,2026-10-02 11:08:31,149,7.7,0.407143,0,0,93.2297,0.665371,0,0.55,0.4,0.05,0,0,-1,-1,0.095
Green_YC310_Pro_5B88_261002_111101.csv,2,277,26,6,16600.2,0.0264009,4.49269e+06,0.298538,32.71,-0.16,0.451667,-0.0266663,0.0465164,0.227696,0.00288395,0.772304,0.817103,0.597351,0.46648,0.0473848,0.232818,1.0072,1,2026-10-02 11:11:01,150,8,0.428571,0,0,84.5987,0.557484,0,0.363636,0.5,0.136364,0,0,-1,-1,0.0830769
Green_YC310_Pro_5B88_261002_111331.csv,2,278,17,2,65325.2,0.221301,5.88737e+06,0.577475,32.8,0.09,0.466667,0.0149997,0.0593984,0.4498,0.012882,0.5502,0.8279,0.665371,0.477277,0.0473848,0.237548,1.0072,1,2026-10-02 11:13:31,150,8.7,0.478571,0,0,71.1297,0.389121,0,0.25,0.416667,0.166667,0.166667,0,-1,-1,0.116667
Green_YC310_Pro_5B88_261002_111603.csv,2,279,27,4,18234,0.0329358,5.57327e+06,0.514653,32.75,-0.05,0.458333,-0.00833367,0.0442778,0.189101,-0.0151206,0.810899,0.834013,0.66345,0.475356,0.0494958,0.234474,1.01281,1,2026-10-02 11:16:03,152,9,0.5,0,0,89.6018,0.620022,0,0.4,0.6,0,0,0,-1,-1,0.0876923
Green_YC310_Pro_5B88_261002_111830.csv,2,280,28,9,23429.4,0.0537177,5.00368e+06,0.400735,32.8,0.05,0.466667,0.00833367,0.0449723,0.201075,0.000694536,0.798925,0.828337,0.649418,0.46968,0.0511098,0.236761,1.00503,1,2026-10-02 11:18:30,147,9.3,0.521429,0,0,90.7127,0.633909,0,0.384615,0.576923,0.0384615,0,0,-1,-1,0.1
Green_YC310_Pro_5B88_261002_112102.csv,2,281,26,8,23084.7,0.0523388,5.24512e+06,0.449024,32.89,0.09,0.481667,0.0149997,0.0477828,0.24953,0.00281045,0.75047,0.822662,0.649364,0.469627,0.0527239,0.24115,0.998338,1,2026-10-02 11:21:02,152,10.2,0.585714,0,0,89.8618,0.623273,0,0.272727,0.681818,0.0454545,0,0,-1,-1,0.102353
Green_YC310_Pro_5B88_261002_112334.csv,2,282,28,12,22932.5,0.0517301,5.27448e+06,0.454897,32.95,0.06,0.491667,0.00999967,0.0408519,0.130033,-0.00693089,0.869967,0.800732,0.649311,0.469574,0.05948,0.242876,0.981271,1,2026-10-02 11:23:34,152,10.6,0.614286,0,0,92.3077,0.653846,0,0.464286,0.535714,0,0,0,-1,-1,0.0985714
Green_YC310_Pro_5B88_261002_112601.csv,2,283,26,17,23738.4,0.0549534,5.19643e+06,0.439286,33,0.05,0.5,0.008333,0.0443478,0.190307,0.00349588,0.809693,0.797195,0.634699,0.466036,0.066236,0.244077,0.975385,1,2026-10-02 11:26:01,147,10.9,0.635714,0,0,86.6667,0.583334,0,0.296296,0.703704,0,0,0,-1,-1,0.103846
Green_YC310_Pro_5B88_261002_112831.csv,2,284,26,12,30185.5,0.0807419,5.21883e+06,0.443766,33,0,0.5,0,0.0442928,0.189358,-5.504e-05,0.810642,0.794805,0.620088,0.463647,0.0578712,0.245843,0.971979,1,2026-10-02 11:28:31,150,11.2,0.657143,0,0,87.4439,0.593049,0,0.333333,0.666667,0,0,0,-1,-1,0.112222
Green_YC310_Pro_5B88_261002_113108.csv,2,285,29,12,16658.9,0.0266357,5.55903e+06,0.511807,33.06,0.06,0.51,0.01,0.0443329,0.19005,4.01096e-05,0.80995,0.793565,0.615397,0.462406,0.0539745,0.249819,0.969075,1,2026-10-02 11:31:08,157,11.4,0.671429,0,0,98.1941,0.727426,0.0357143,0.357143,0.571429,0.0357143,0,0,-1,-1,0.0963636
Green_YC310_Pro_5B88_261002_113335.csv,2,286,27,6,30471.2,0.0818848,5.35744e+06,0.471489,33.18,0.12,0.53,0.02,0.0446649,0.195774,0.000331991,0.804226,0.792391,0.610706,0.461232,0.0599386,0.254865,0.964903,1,2026-10-02 11:33:35,147,11.4,0.671429,0,0,88.9133,0.611416,0,0.5,0.5,0,0,0,-1,-1,0.0857143
Green_YC310_Pro_5B88_261002_113605.csv,2,287,25,5,27201.2,0.0688048,5.33841e+06,0.467683,33.22,0.04,0.536667,0.00666667,0.0455038,0.210238,0.000838905,0.789762,0.791217,0.615936,0.466462,0.0712953,0.254569,0.963744,1,2026-10-02 11:36:05,150,12.2,0.728571,0,0,83.7054,0.546318,0,0.4,0.6,0,0,0,-1,-1,0.11875
Green_YC310_Pro_5B88_261002_113833.csv,2,288,28,8,25176.4,0.0607057,5.36592e+06,0.473185,33.29,0.07,0.548333,0.0116663,0.0482547,0.257668,0.00275094,0.742332,0.79292,0.621166,0.468165,0.0785616,0.256713,0.96402,1,2026-10-02 11:38:33,148,12.4,0.742857,0,0,89.9358,0.624197,0,0.208333,0.791667,0,0,0,-1,-1,0.105
Green_YC310_Pro_5B88_261002_114101.csv,2,289,26,21,35921.1,0.103684,5.3368e+06,0.467361,33.31,0.02,0.551667,0.00333367,0.0459775,0.218404,-0.00227724,0.781596,0.799789,0.613896,0.460895,0.0830864,0.256809,0.967591,1,2026-10-02 11:41:01,148,12.3,0.735714,0,0,86.8597,0.585746,0,0.296296,0.703704,0,0,0,-1,-1,0.105926
Green_YC310_Pro_5B88_261002_114332.csv,2,290,27,13,26068,0.0642719,5.41526e+06,0.483052,33.36,0.05,0.56,0.008333,0.0444652,0.192332,-0.00151227,0.807668,0.811823,0.606626,0.453625,0.0805804,0.259965,0.974156,1,2026-10-02 11:43:32,151,12.2,0.728571,0,0,87.0032,0.58754,0,0.36,0.64,0,0,0,-1,-1,0.102609
Green_YC310_Pro_5B88_261002_114604.csv,2,291,27,11,26702.7,0.0668109,5.48013e+06,0.496026,33.43,0.07,0.571667,0.0116667,0.0424712,0.157951,-0.00199403,0.842049,0.794161,0.596823,0.443822,0.0737855,0.265079,0.959242,1,2026-10-02 11:46:04,152,12.2,0.728571,0,0,90.2004,0.627505,0,0.56,0.44,0,0,0,-1,-1,0.0872727
Green_YC310_Pro_5B88_261002_114831.csv,2,292,26,7,30824.8,0.083299,5.3925e+06,0.4785,33.47,0.04,0.578333,0.00666633,0.0490505,0.271387,0.00657926,0.728613,0.790483,0.594444,0.441443,0.0773448,0.266429,0.955587,1,2026-10-02 11:48:31,147,11.8,0.7,0,0,84.507,0.556338,0,0.391304,0.478261,0.130435,0,0,-1,-1,0.0986667
Green_YC310_Pro_5B88_261002_115101.csv,2,293,28,13,28737.5,0.0749499,5.41467e+06,0.482934,33.49,0.02,0.581667,0.00333367,0.0439709,0.183808,-0.00507962,0.816192,0.800788,0.602815,0.449814,0.0858954,0.265674,0.963716,1,2026-10-02 11:51:01,150,12.2,0.728571,0,0,91.0076,0.637595,0,0.535714,0.464286,0,0,0,-1,-1,0.1
Green_YC310_Pro_5B88_261002_115331.csv,2,294,26,9,37595.6,0.110383,5.51519e+06,0.503038,33.53,0.04,0.588333,0.00666633,0.0415715,0.142441,-0.00239935,0.857559,0.844535,0.611908,0.458907,0.09045,0.266815,0.994581,1,2026-10-02 11:53:31,150,12.2,0.728571,0,0,86.3787,0.579734,0,0.434783,0.565217,0,0,0,-1,-1,0.102727
Green_YC310_Pro_5B88_261002_115602.csv,2,295,27,15,26521,0.066084,5.33897e+06,0.467793,33.55,0.02,0.591667,0.00333367,0.0414385,0.140146,-0.000133032,0.859854,0.829971,0.619757,0.466756,0.0840213,0.269223,0.984565,1,2026-10-02 11:56:02,151,12.1,0.721429,0,0,92.0455,0.650569,0,0.407407,0.592593,0,0,0,-1,-1,0.102308
Green_YC310_Pro_5B88_261002_115834.csv,2,296,27,14,29857.9,0.0794317,5.25702e+06,0.451404,33.55,0,0.591667,-3.33333e-07,0.0457496,0.214475,0.00431106,0.785525,0.815669,0.617469,0.464468,0.075597,0.271002,0.974517,1,2026-10-02 11:58:34,152,12,0.714286,0,0,87.8525,0.598156,0,0.461538,0.5,0.0384615,0,0,-1,-1,0.1
Green_YC310_Pro_5B88_261002_120103.csv,2,297,28,11,30318.8,0.0812753,5.39205e+06,0.47841,33.59,0.04,0.598333,0.00666633,0.0456022,0.211934,-0.000147418,0.788066,0.801628,0.606569,0.453568,0.0834278,0.27145,0.963576,1,2026-10-02 12:01:03,149,11.9,0.707143,0,0,89.8396,0.622995,0,0.24,0.76,0,0,0,-1,-1,0.104167
Green_YC310_Pro_5B88_261002_120332.csv,2,298,26,15,32394.1,0.0895765,5.27425e+06,0.45485,33.63,0.04,0.605,0.006667,0.0430951,0.168708,-0.00250713,0.831292,0.819919,0.612691,0.45969,0.0807981,0.274108,0.976655,1,2026-10-02 12:03:32,149,11.2,0.657143,0,0,86.5705,0.582131,0,0.28,0.72,0,0,0,-1,-1,0.103
Green_YC310_Pro_5B88_261002_120602.csv,2,299,27,12,27347.5,0.06939,5.4645e+06,0.4929,33.62,-0.01,0.603333,-0.00166667,0.0425669,0.159601,-0.000528223,0.840399,0.817148,0.632948,0.479947,0.0811996,0.273497,0.978318,1,2026-10-02 12:06:02,150,11.3,0.664286,0,0,88.8158,0.610197,0,0.55,0.45,0,0,0,-1,-1,0.097
Green_YC310_Pro_5B88_261002_120833.csv,2,300,28,16,34110.5,0.0964419,5.34892e+06,0.469784,33.65,0.03,0.608333,0.00500033,0.0399558,0.114582,-0.00261112,0.885418,0.80973,0.659111,0.50611,0.0844616,0.274385,0.974816,1,2026-10-02 12:08:33,151,11.1,0.65,0,0,94.7012,0.683765,0,0.653846,0.346154,0,0,0,-1,-1,0.0946154
Green_YC310_Pro_5B88_261002_121101.csv,2,301,29,7,28893.2,0.0755727,5.35359e+06,0.470718,33.64,-0.01,0.606667,-0.00166633,0.0439662,0.183728,0.00401043,0.816272,0.802442,0.687712,0.534711,0.0884896,0.273009,0.970293,1,2026-10-02 12:11:01,148,10.8,0.628571,0,0,92.8495,0.660619,0,0.407407,0.592593,0,0,0,-1,-1,0.1
Green_YC310_Pro_5B88_261002_121332.csv,2,302,30,6,36592.7,0.106371,5.34679e+06,0.469357,33.65,0.01,0.608333,0.00166633,0.0452648,0.206117,0.0012986,0.793883,0.799929,0.705859,0.552858,0.0849605,0.27428,0.968256,1,2026-10-02 12:13:32,151,10.6,0.614286,0,0,99.6678,0.745847,0,0.346154,0.615385,0.0384615,0,0,-1,-1,0.0877778
Green_YC310_Pro_5B88_261002_121604.csv,2,303,30,12,22881.9,0.0515274,5.48231e+06,0.496463,33.65,0,0.608333,3.33333e-07,0.045862,0.216414,0.000597201,0.783586,0.790627,0.711111,0.55811,0.0821019,0.274883,0.9616,1,2026-10-02 12:16:04,152,10.4,0.6,0,0,98.7925,0.734906,0,0.366667,0.6,0.0333333,0,0,-1,-1,0.0963636
Green_YC310_Pro_5B88_261002_121831.csv,2,304,28,11,30004.4,0.0800177,5.18328e+06,0.436655,33.63,-0.02,0.605,-0.003333,0.0455848,0.211634,-0.000277207,0.788366,0.778332,0.66917,0.545815,0.0884072,0.272501,0.955043,1,2026-10-02 12:18:31,147,10.2,0.585714,0,0,92.2064,0.65258,0,0.44,0.56,0,0,0,-1,-1,0.0975
Green_YC310_Pro_5B88_261002_122101.csv,2,305,27,9,41321.8,0.125287,5.69191e+06,0.538382,33.6,-0.03,0.6,-0.005,0.0476355,0.246991,0.00205066,0.753009,0.767671,0.654019,0.535154,0.0921918,0.270125,0.94874,1,2026-10-02 12:21:01,150,9.4,0.528571,0,0,89.6018,0.620022,0,0.375,0.541667,0.0833333,0,0,-1,-1,0.0968421
Green_YC310_Pro_5B88_261002_122332.csv,2,306,28,12,31739.2,0.0869569,5.49115e+06,0.49823,33.61,0.01,0.601667,0.00166667,0.0462846,0.223701,-0.00135085,0.776299,0.766984,0.638869,0.534467,0.0959763,0.269852,0.949028,1,2026-10-02 12:23:32,151,9.1,0.507143,0,0,90.9091,0.636364,0,0.37931,0.586207,0.0344828,0,0,-1,-1,0.0948148
Green_YC310_Pro_5B88_261002_122604.csv,2,307,28,13,26666.4,0.0666656,5.59977e+06,0.519954,33.59,-0.02,0.598333,-0.00333367,0.047095,0.237672,0.000810403,0.762328,0.777379,0.65742,0.544862,0.0865081,0.2708,0.955049,1,2026-10-02 12:26:04,152,8.7,0.478571,0,0,92.8177,0.660221,0,0.285714,0.714286,0,0,0,-1,-1,0.0976923
Green_YC310_Pro_5B88_261002_122832.csv,2,308,29,15,28744.8,0.0749791,5.51262e+06,0.502524,33.6,0.01,0.6,0.001667,0.0442986,0.189459,-0.00279638,0.810541,0.793511,0.628823,0.516265,0.0770398,0.273325,0.968728,1,2026-10-02 12:28:32,148,8.5,0.464286,0,0,94.0541,0.675676,0,0.466667,0.533333,0,0,0,-1,-1,0.097931
Green_YC310_Pro_5B88_261002_123102.csv,2,309,25,9,32368.7,0.0894748,5.55866e+06,0.511733,33.63,0.03,0.605,0.005,0.0434777,0.175306,-0.000820861,0.824694,0.794916,0.59659,0.484032,0.0933286,0.271462,0.970941,1,2026-10-02 12:31:02,150,8.3,0.45,0,0,84.2697,0.553371,0,0.347826,0.652174,0,0,0,-1,-1,0.105714
Green_YC310_Pro_5B88_261002_123332.csv,2,310,26,8,38883.1,0.115532,5.54081e+06,0.508163,33.65,0.02,0.608333,0.00333333,0.0468505,0.233457,0.00337278,0.766543,0.803052,0.560723,0.448165,0.0918172,0.272832,0.977494,1,2026-10-02 12:33:32,150,7.8,0.414286,0,0,84.6906,0.558633,0,0.304348,0.652174,0.0434783,0,0,-1,-1,0.0963636
Green_YC310_Pro_5B88_261002_123602.csv,2,311,29,5,30103,0.0804118,5.72015e+06,0.544029,33.76,0.11,0.626667,0.0183337,0.0400287,0.115839,-0.00682182,0.884161,0.818937,0.567197,0.454639,0.0903058,0.278931,0.986866,1,2026-10-02 12:36:02,150,7.3,0.378571,0,0,98.6395,0.732994,0,0.75,0.178571,0.0714286,0,0,-1,-1,0.0756522
Green_YC310_Pro_5B88_261002_123832.csv,2,312,26,11,28743.4,0.0749735,5.69619e+06,0.539239,33.83,0.07,0.638333,0.0116663,0.0429288,0.165841,0.00290011,0.834159,0.824011,0.542363,0.429805,0.0767863,0.285465,0.990749,1,2026-10-02 12:38:32,150,7.2,0.371429,0,0,86.9565,0.586956,0,0.583333,0.416667,0,0,0,-1,-1,0.085
Green_YC310_Pro_5B88_261002_124101.csv,2,313,24,2,58183.7,0.192735,5.63062e+06,0.526124,33.73,-0.1,0.621667,-0.0166663,0.0498155,0.284578,0.00688674,0.715422,0.817255,0.582236,0.469678,0.0749735,0.280593,0.985376,1,2026-10-02 12:41:01,149,7.4,0.385714,0,0,80.6271,0.507839,0,0.5,0.3,0.1,0.1,0,-1,-1,0.0963636
Green_YC310_Pro_5B88_261002_124331.csv,2,314,23,2,34359.9,0.0974395,5.09119e+06,0.418238,33.5,-0.23,0.583333,-0.0383337,0.0380465,0.0816646,-0.011769,0.918335,0.825025,0.568422,0.455864,0.087753,0.265808,0.994989,1,2026-10-02 12:43:31,150,7.3,0.378571,0,0,80.0464,0.50058,0,0.571429,0.428571,0,0,0,-1,-1,0.08
Green_YC310_Pro_5B88_261002_124605.csv,2,315,25,8,38328,0.113312,5.6781e+06,0.535621,33.41,-0.09,0.568333,-0.0149997,0.0435377,0.17634,0.00549123,0.82366,0.827255,0.576448,0.458094,0.0945704,0.259639,0.997753,1,2026-10-02 12:46:05,154,7.2,0.371429,0,0,82.5083,0.531354,0.0909091,0.363636,0.545455,0,0,0,-1,-1,0.0971429
Green_YC310_Pro_5B88_261002_124831.csv,2,316,27,10,30661.6,0.0826463,5.59072e+06,0.518145,33.4,-0.01,0.566667,-0.00166633,0.0462859,0.223723,0.00274821,0.776277,0.825439,0.584474,0.46612,0.0929278,0.25946,0.996008,1,2026-10-02 12:48:31,146,6.9,0.35,0,0,88.5246,0.606558,0,0.269231,0.730769,0,0,0,-1,-1,0.102609
Green_YC310_Pro_5B88_261002_125110.csv,2,317,28,7,33276.7,0.0931067,4.52602e+06,0.305205,33.45,0.05,0.575,0.008333,0.0435748,0.17698,-0.00271106,0.82302,0.829062,0.600021,0.469742,0.0759628,0.26567,0.996002,1,2026-10-02 12:51:10,159,6.6,0.328571,0,0,91.0076,0.637595,0,0.391304,0.608696,0,0,0,-1,-1,0.096
Green_YC310_Pro_5B88_261002_125333.csv,2,318,26,15,18747.8,0.0349914,5.23352e+06,0.446705,33.64,0.19,0.606667,0.0316667,0.0424353,0.157333,-0.00113949,0.842667,0.832924,0.615567,0.473604,0.0691859,0.277085,0.99375,1,2026-10-02 12:53:33,143,6.2,0.3,0,0,89.9654,0.624568,0,0.481481,0.518519,0,0,0,-1,-1,0.0983333
Green_YC310_Pro_5B88_261002_125602.csv,2,319,26,3,38413.6,0.113654,5.25087e+06,0.450174,33.78,0.14,0.63,0.023333,0.046065,0.219914,0.00362974,0.780086,0.829945,0.591172,0.470626,0.078399,0.282497,0.993332,1,2026-10-02 12:56:02,149,6.2,0.3,0,0,86.7631,0.584539,0,0.428571,0.52381,0.047619,0,0,-1,-1,0.0888889
Green_YC310_Pro_5B88_261002_125831.csv,2,320,26,12,22824.1,0.0512965,5.04238e+06,0.408477,33.95,0.17,0.658333,0.0283333,0.0431449,0.169567,-0.0029201,0.830433,0.825171,0.601041,0.480495,0.0896907,0.289046,0.986117,1,2026-10-02 12:58:31,149,6.2,0.3,0,0,85.1528,0.56441,0.0416667,0.416667,0.541667,0,0,0,-1,-1,0.102
Green_YC310_Pro_5B88_261002_130101.csv,2,321,28,13,28721.3,0.0748851,5.13657e+06,0.427315,34.03,0.08,0.671667,0.0133337,0.0439543,0.183523,0.000809419,0.816477,0.822008,0.601035,0.480489,0.104122,0.290202,0.982824,1,2026-10-02 13:01:01,150,6.3,0.307143,0,0,91.8033,0.647541,0.0357143,0.392857,0.5,0.0714286,0,0,-1,-1,0.1
Green_YC310_Pro_5B88_261002_130332.csv,2,322,22,6,49236.8,0.156947,5.41996e+06,0.483992,34.18,0.15,0.696667,0.0249997,0.0490433,0.271264,0.00508903,0.728736,0.821205,0.591155,0.479686,0.120599,0.294605,0.979762,1,2026-10-02 13:03:32,151,6.2,0.3,0,0,74.4081,0.430101,0,0.277778,0.666667,0.0555556,0,0,-1,-1,0.1
Green_YC310_Pro_5B88_261002_130602.csv,2,323,25,13,35182,0.100728,5.13799e+06,0.427597,34.27,0.09,0.711667,0.0149997,0.0435193,0.176022,-0.00552403,0.823978,0.822493,0.570154,0.458685,0.115083,0.300499,0.977941,1,2026-10-02 13:06:02,150,6.3,0.307143,0,0,82.7815,0.534769,0,0.590909,0.409091,0,0,0,-1,-1,0.100952
Green_YC310_Pro_5B88_261002_130832.csv,2,324,26,9,35482,0.101928,5.22014e+06,0.444028,34.31,0.04,0.718333,0.00666633,0.0438163,0.181143,0.000297013,0.818857,0.819423,0.54981,0.455615,0.100191,0.305746,0.974065,1,2026-10-02 13:08:32,150,6.2,0.3,0,0,86.7631,0.584539,0,0.375,0.625,0,0,0,-1,-1,0.0991304
Green_YC310_Pro_5B88_261002_131102.csv,2,325,25,15,34044.9,0.0961796,5.12104e+06,0.424207,34.4,0.09,0.733333,0.0150003,0.0440148,0.184566,0.000198509,0.815434,0.821267,0.530123,0.435928,0.106837,0.309072,0.97324,1,2026-10-02 13:11:02,150,6.2,0.3,0,0,81.6993,0.521241,0,0.423077,0.576923,0,0,0,-1,-1,0.0992308
Green_YC310_Pro_5B88_261002_131333.csv,2,326,23,21,34900.1,0.0996003,5.08646e+06,0.417292,34.43,0.03,0.738333,0.00500033,0.0432312,0.171056,-0.00078355,0.828944,0.819163,0.492235,0.433824,0.122405,0.307361,0.970266,1,2026-10-02 13:13:33,151,6.3,0.307143,0,0,78.7671,0.484589,0,0.458333,0.541667,0,0,0,-1,-1,0.104167
Green_YC310_Pro_5B88_261002_131604.csv,2,327,24,8,47157.5,0.14863,5.20131e+06,0.440263,34.41,-0.02,0.735,-0.003333,0.0465143,0.22766,0.00328306,0.77234,0.813111,0.51265,0.454239,0.110969,0.308725,0.967113,1,2026-10-02 13:16:04,151,6.2,0.3,0,0,77.6699,0.470874,0,0.318182,0.636364,0.0454545,0,0,-1,-1,0.1
Green_YC310_Pro_5B88_261002_131835.csv,2,328,27,16,29697,0.0787878,5.22103e+06,0.444206,34.47,0.06,0.745,0.01,0.0450679,0.202722,-0.0014464,0.797278,0.821939,0.537694,0.463066,0.0995328,0.314293,0.972889,1,2026-10-02 13:18:35,151,6,0.285714,0,0,85.9873,0.574841,0,0.346154,0.615385,0.0384615,0,0,-1,-1,0.0882353
Green_YC310_Pro_5B88_261002_132102.csv,2,329,25,5,27795.1,0.0711805,5.04131e+06,0.408262,34.49,0.02,0.748333,0.00333333,0.0450553,0.202505,-1.26137e-05,0.797495,0.830766,0.578057,0.471894,0.0576012,0.324198,0.980011,1,2026-10-02 13:21:02,147,5.9,0.278571,0,0,82.4176,0.53022,0,0.461538,0.538462,0,0,0,-1,-1,0.0961538
Green_YC310_Pro_5B88_261002_132334.csv,2,330,29,11,15708.8,0.0228353,4.94326e+06,0.388652,34.38,-0.11,0.73,-0.018333,0.0411833,0.135746,-0.00387203,0.864254,0.827072,0.614465,0.508301,0.0468177,0.320695,0.980559,1,2026-10-02 13:23:34,152,5.7,0.264286,0,0,94.1558,0.676948,0.0714286,0.535714,0.392857,0,0,0,-1,-1,0.0825
Green_YC310_Pro_5B88_261002_132601.csv,2,331,27,12,25004.1,0.0600165,4.97996e+06,0.395993,34.16,-0.22,0.693333,-0.0366667,0.0443206,0.189838,0.00313733,0.810162,0.823379,0.636226,0.530063,0.0428314,0.309976,1.08673,1,2026-10-02 13:26:01,147,5.5,0.25,0,0,90,0.625,0,0.384615,0.615385,0,0,0,-1,-1,0.0973913
Green_YC310_Pro_5B88_261002_132832.csv,2,332,26,11,20682,0.0427282,4.83538e+06,0.367076,34.07,-0.09,0.678333,-0.0149997,0.0459248,0.217497,0.00160422,0.782503,0.811634,0.631079,0.524916,0.0456424,0.304653,1.07965,1,2026-10-02 13:28:32,151,5.3,0.235714,0,0,87.6404,0.595505,0,0.291667,0.708333,0,0,0,-1,-1,0.0857143
Green_YC310_Pro_5B88_261002_133102.csv,2,333,28,13,18545.6,0.0341825,4.90966e+06,0.381932,33.97,-0.1,0.661667,-0.0166663,0.0432268,0.17098,-0.00269795,0.82902,0.790479,0.620539,0.514376,0.0351465,0.301614,1.06626,1,2026-10-02 13:31:02,150,5.3,0.235714,0,0,92.9204,0.661505,0,0.535714,0.464286,0,0,0,-1,-1,0.0935714
Green_YC310_Pro_5B88_261002_133334.csv,2,334,26,7,17132.2,0.0285287,4.74457e+06,0.348914,33.9,-0.07,0.65,-0.011667,0.0494703,0.278627,0.00624355,0.721373,0.775197,0.604607,0.499093,0.0304133,0.298936,1.05683,1,2026-10-02 13:33:34,152,5.3,0.235714,0,0,86.0927,0.576159,0,0.32,0.6,0.08,0,0,-1,-1,0.1
Green_YC310_Pro_5B88_261002_133606.csv,2,335,24,8,20252.5,0.0410101,4.55984e+06,0.311968,33.87,-0.03,0.645,-0.005,0.0513511,0.311053,0.00188078,0.688947,0.775197,0.576159,0.470645,0.0285287,0.297757,1.05794,1,2026-10-02 13:36:06,152,5.4,0.242857,0,0,83.237,0.540462,0,0.181818,0.590909,0.227273,0,0,-1,-1,0.108571
Green_YC310_Pro_5B88_261002_133835.csv,2,336,15,2,60358.7,0.201435,4.77298e+06,0.354597,33.86,-0.01,0.643333,-0.00166667,0.0537631,0.352639,0.00241197,0.647361,0.775197,0.576159,0.470645,0.186906,0.263788,1.0581,1,2026-10-02 13:38:35,149,5.4,0.242857,0,0,61.3079,0.266349,0,0.181818,0.545455,0.181818,0.0909091,0,-1,-1,0.0975
Green_YC310_Pro_5B88_261002_134102.csv,2,337,27,17,20394.3,0.0415773,4.94557e+06,0.389113,33.84,-0.02,0.64,-0.003333,0.0441617,0.187098,-0.00960142,0.812902,0.775197,0.589135,0.483621,0.0356811,0.29467,1.05795,1,2026-10-02 13:41:02,147,5.3,0.235714,0,0,89.9001,0.623751,0,0.518519,0.481481,0,0,0,-1,-1,0.0890909
Green_YC310_Pro_5B88_261002_134332.csv,2,338,27,14,22496.5,0.0499859,5.20297e+06,0.440593,33.81,-0.03,0.635,-0.005,0.0464429,0.22643,0.00228121,0.77357,0.759893,0.580045,0.474531,0.0701215,0.285821,1.04799,1,2026-10-02 13:43:32,150,5.1,0.221429,0,0,89.207,0.615087,0,0.36,0.64,0,0,0,-1,-1,0.1
Green_YC310_Pro_5B88_261002_134603.csv,2,339,25,6,42962.6,0.13185,5.23424e+06,0.446848,33.86,0.05,0.643333,0.00833333,0.0467772,0.232194,0.000334325,0.767806,0.713646,0.565471,0.459957,0.107365,0.280584,1.01515,1,2026-10-02 13:46:03,151,5,0.214286,0,0,82.8729,0.535911,0,0.35,0.55,0.1,0,0,-1,-1,0.1
Green_YC310_Pro_5B88_261002_134833.csv,2,340,26,7,45064.5,0.140258,4.97125e+06,0.394251,33.97,0.11,0.661667,0.0183337,0.0486752,0.264917,0.00189801,0.735083,0.651757,0.530077,0.424563,0.195301,0.267795,0.967467,1,2026-10-02 13:48:33,150,4.9,0.207143,0,0,85.9978,0.574972,0,0.15,0.8,0.05,0,0,-1,-1,0.103333
Green_YC310_Pro_5B88_261002_135102.csv,2,341,23,3,88449,0.313796,5.12664e+06,0.425329,34.09,0.12,0.681667,0.0199997,0.0602389,0.464291,0.0115637,0.535709,0.633132,0.488529,0.405937,0.206474,0.271742,0.941451,1,2026-10-02 13:51:02,149,4.7,0.192857,0,0,74.7562,0.434453,0,0.214286,0.357143,0.357143,0.0714286,0,-1,-1,0.1475
Green_YC310_Pro_5B88_261002_135334.csv,2,342,25,27,59328,0.197312,4.97781e+06,0.395561,34.17,0.08,0.695,0.013333,0.0500182,0.288072,-0.0102207,0.711928,0.650191,0.468705,0.386113,0.217646,0.273587,0.944929,1,2026-10-02 13:53:34,152,4.6,0.185714,0,0,80.819,0.510238,0,0.421053,0.421053,0.0526316,0.105263,0,-1,-1,0.1
Green_YC310_Pro_5B88_261002_135601.csv,2,343,24,5,40373.9,0.121496,5.07777e+06,0.415553,34.25,0.08,0.708333,0.0133333,0.0541205,0.358802,0.00410234,0.641198,0.664361,0.461424,0.378832,0.167714,0.288335,0.950768,1,2026-10-02 13:56:01,147,4.4,0.171429,0,0,80.7175,0.508969,0,0.15,0.65,0.15,0.05,0,-1,-1,0.116
Green_YC310_Pro_5B88_261002_135831.csv,2,344,22,6,51000.2,0.164001,5.10053e+06,0.420105,34.28,0.03,0.713333,0.00500033,0.0528491,0.336881,-0.00127141,0.663119,0.645758,0.459873,0.377282,0.12708,0.298492,0.936515,1,2026-10-02 13:58:31,150,4.4,0.171429,0,0,73.0088,0.41261,0,0.117647,0.647059,0.235294,0,0,-1,-1,0.114545
Green_YC310_Pro_5B88_261002_140101.csv,2,345,24,6,24705,0.05882,5.06995e+06,0.413989,34.31,0.03,0.718333,0.00500033,0.050705,0.299913,-0.00214413,0.700087,0.648535,0.464111,0.380059,0.183163,0.288225,0.938997,1,2026-10-02 14:01:01,150,4.3,0.164286,0,0,80.4469,0.505586,0,0.210526,0.631579,0.157895,0,0,-1,-1,0.104286
Green_YC310_Pro_5B88_261002_140331.csv,2,346,24,3,122753,0.451011,5.24283e+06,0.448566,34.26,-0.05,0.71,-0.008333,0.0559588,0.390497,0.00525381,0.609503,0.660466,0.474138,0.390086,0.294955,0.261991,0.951396,1,2026-10-02 14:03:31,150,4.2,0.157143,0,0,78.2609,0.478261,0,0.166667,0.611111,0.111111,0.111111,0,-1,-1,0.106667
Green_YC310_Pro_5B88_261002_140602.csv,2,347,22,3,64744,0.218976,4.88264e+06,0.376528,34.14,-0.12,0.69,-0.02,0.054967,0.373396,-0.000991816,0.626604,0.663218,0.439286,0.355234,0.332754,0.247704,0.946955,1,2026-10-02 14:06:02,151,4.2,0.157143,0,0,75.0853,0.438566,0.0833333,0.166667,0.5,0.166667,0.0833333,0,-1,-1,0.146667
Green_YC310_Pro_5B88_261002_140832.csv,2,348,21,4,90426.5,0.321706,5.01814e+06,0.403628,34.13,-0.01,0.688333,-0.00166667,0.0507198,0.300168,-0.00424724,0.699832,0.657714,0.384318,0.34973,0.328275,0.248124,0.931274,1,2026-10-02 14:08:32,150,4.2,0.157143,0,0,72.0824,0.40103,0,0.266667,0.533333,0.2,0,0,-1,-1,0.2
Green_YC310_Pro_5B88_261002_141102.csv,2,349,19,3,121036,0.444143,4.91479e+06,0.382958,34.07,-0.06,0.678333,-0.00999967,0.056244,0.395413,0.00552417,0.604587,0.652209,0.342581,0.344225,0.403331,0.229122,0.922047,1,2026-10-02 14:11:02,150,4.2,0.157143,0,0,65.0685,0.313356,0,0.2,0.533333,0.2,0.0666667,0,-1,-1,0.186667
Green_YC310_Pro_5B88_261002_141335.csv,2,350,21,2,88885.3,0.315541,5.11227e+06,0.422454,33.99,-0.08,0.665,-0.013333,0.0569372,0.407365,0.000693157,0.592635,0.652209,0.313356,0.315001,0.444143,0.2163,0.920727,1,2026-10-02 14:13:35,153,4.1,0.15,0,0,71.8358,0.397948,0,0.117647,0.529412,0.294118,0.0588235,0,-1,-1,0.106667
Green_YC310_Pro_5B88_261002_141602.csv,2,351,24,1,86807.7,0.307231,4.93976e+06,0.387951,33.9,-0.09,0.65,-0.015,0.0493059,0.275792,-0.00763129,0.724208,0.652209,0.485716,0.48736,0.444143,0.21157,0.920727,1,2026-10-02 14:16:02,147,4.1,0.15,0,0,79.2079,0.490099,0,0.2,0.6,0.2,0,0,-1,-1,0.115556
Green_YC310_Pro_5B88_261002_141836.csv,2,352,19,2,95256.4,0.341026,4.96934e+06,0.393868,33.88,-0.02,0.646667,-0.00333333,0.0644659,0.53717,0.01516,0.46283,0.652209,0.313356,0.315001,0.260608,0.249275,0.920727,1,2026-10-02 14:18:36,154,4.1,0.15,0,0,66.1253,0.326566,0,0.142857,0.357143,0.285714,0.214286,0,-1,-1,0.116667
Green_YC310_Pro_5B88_261002_142101.csv,2,353,22,1,79748.5,0.278994,4.94446e+06,0.388891,33.89,0.01,0.648333,0.00166633,0.0530587,0.340495,-0.0114072,0.659505,0.652209,0.313356,0.315001,0.444143,0.211045,0.920431,1,2026-10-02 14:21:01,145,3.9,0.135714,0,0,73.743,0.421787,0,0.277778,0.444444,0.222222,0.0555556,0,-1,-1,0.124444
Green_YC310_Pro_5B88_261002_142331.csv,2,354,20,1,102206,0.368824,5.0559e+06,0.411181,33.78,-0.11,0.63,-0.018333,0.0608088,0.474118,0.00775013,0.525882,0.646723,0.35406,0.355704,0.38948,0.216807,0.919759,1,2026-10-02 14:23:31,150,4.1,0.15,0,0,66.6667,0.333334,0,0,0.642857,0.285714,0.0714286,0,-1,-1,0.12
Green_YC310_Pro_5B88_261002_142605.csv,2,355,23,3,80038.3,0.280153,4.95625e+06,0.39125,33.64,-0.14,0.606667,-0.0233333,0.0575168,0.417358,-0.00329204,0.582642,0.641237,0.394763,0.396407,0.334816,0.220993,0.919906,1,2026-10-02 14:26:05,154,4.1,0.15,0,0,74.8373,0.435466,0,0.133333,0.533333,0.333333,0,0,-1,-1,0.164
Green_YC310_Pro_5B88_261002_142831.csv,2,356,23,2,67668.4,0.230673,4.98599e+06,0.397198,33.61,-0.03,0.601667,-0.00500033,0.0598666,0.457872,0.00234976,0.542128,0.6386,0.445593,0.447237,0.287515,0.229405,0.919031,1,2026-10-02 14:28:31,146,4.2,0.157143,0,0,75.4923,0.443654,0,0.235294,0.235294,0.470588,0.0588235,0,-1,-1,0.156364
Green_YC310_Pro_5B88_261002_143102.csv,2,357,23,3,85560,0.30224,5.06092e+06,0.412183,33.62,0.01,0.603333,0.00166633,0.0581285,0.427906,-0.00173805,0.572094,0.63791,0.453829,0.455473,0.238177,0.240349,0.918299,1,2026-10-02 14:31:02,151,4.2,0.157143,0,0,77.2676,0.465845,0,0.176471,0.529412,0.176471,0.117647,0,-1,-1,0.122222
Green_YC310_Pro_5B88_261002_143333.csv,2,358,19,4,60491.1,0.201964,4.82458e+06,0.364916,33.59,-0.03,0.598333,-0.00499967,0.0520723,0.323487,-0.00605623,0.676513,0.658882,0.46336,0.465004,0.188839,0.249191,0.933836,1,2026-10-02 14:33:33,151,4.1,0.15,0,0,63.9731,0.299664,0,0.214286,0.714286,0.0714286,0,0,-1,-1,0.102222
Green_YC310_Pro_5B88_261002_143601.csv,2,359,22,3,28859.7,0.075439,4.64765e+06,0.329529,33.26,-0.33,0.543333,-0.0549997,0.0537239,0.351963,0.00165155,0.648037,0.680687,0.472418,0.474063,0.125363,0.245254,0.959622,1,2026-10-02 14:36:01,148,4.1,0.15,0,0,73.3333,0.416666,0,0.166667,0.666667,0.111111,0.0555556,0,-1,-1,0.121818
Green_YC310_Pro_5B88_261002_143833.csv,2,360,24,3,37952.8,0.111811,4.87291e+06,0.374582,33.17,-0.09,0.528333,-0.0149997,0.0498165,0.284595,-0.0039074,0.715405,0.686246,0.481477,0.479622,0.0914927,0.247677,0.966549,1,2026-10-02 14:38:33,152,4.2,0.157143,0,0,77.1704,0.46463,0,0.25,0.55,0.2,0,0,-1,-1,0.118824
Green_YC310_Pro_5B88_261002_144101.csv,2,361,25,9,26727.4,0.0669097,4.80771e+06,0.361543,33.32,0.15,0.553333,0.0250003,0.0493008,0.275703,-0.000515718,0.724297,0.707352,0.478258,0.476403,0.0932024,0.255198,0.976968,1,2026-10-02 14:41:01,148,4.2,0.157143,0,0,80.732,0.50915,0,0.304348,0.565217,0.130435,0,0,-1,-1,0.113333
Green_YC310_Pro_5B88_261002_144331.csv,2,362,22,14,31679,0.0867161,4.85586e+06,0.371173,33.35,0.03,0.558333,0.00500033,0.0557871,0.387536,0.00648629,0.612464,0.722151,0.464078,0.462223,0.100886,0.255152,0.985755,1,2026-10-02 14:43:31,150,4.2,0.157143,0,0,74.4081,0.430101,0,0.0434783,0.73913,0.173913,0.0434783,0,-1,-1,0.12
Green_YC310_Pro_5B88_261002_144604.csv,2,363,26,7,43715.8,0.134863,5.05663e+06,0.411325,33.38,0.03,0.563333,0.00500033,0.0500256,0.288199,-0.00576155,0.711801,0.72798,0.463677,0.461822,0.10277,0.256331,0.989081,1,2026-10-02 14:46:04,153,4.2,0.157143,0,0,88.3352,0.60419,0,0.208333,0.708333,0.0833333,0,0,-1,-1,0.11875
Green_YC310_Pro_5B88_261002_144834.csv,2,364,23,19,29069.3,0.0762774,4.94162e+06,0.388323,33.49,0.11,0.581667,0.0183337,0.0496755,0.282164,-0.000350077,0.717836,0.733808,0.473971,0.46765,0.104654,0.261713,0.991574,1,2026-10-02 14:48:34,150,4.3,0.164286,0,0,77.6153,0.470191,0,0.208333,0.708333,0.0833333,0,0,-1,-1,0.116364
Green_YC310_Pro_5B88_261002_145102.csv,2,365,23,12,28611.5,0.0744459,4.95874e+06,0.391748,33.57,0.08,0.595,0.013333,0.0473301,0.241726,-0.00234541,0.758274,0.737004,0.445027,0.438706,0.0996225,0.26698,0.989295,1,2026-10-02 14:51:02,148,4.3,0.164286,0,0,77.1812,0.464765,0,0.26087,0.73913,0,0,0,-1,-1,0.1125
Green_YC310_Pro_5B88_261002_145334.csv,2,366,22,4,39941.7,0.119767,5.02916e+06,0.405831,33.61,0.04,0.601667,0.00666667,0.0526864,0.334075,0.00535627,0.665925,0.730811,0.437266,0.432513,0.101095,0.268771,0.983147,1,2026-10-02 14:53:34,152,4.3,0.164286,0,0,75.5149,0.443936,0,0.15,0.65,0.2,0,0,-1,-1,0.113684
Green_YC310_Pro_5B88_261002_145601.csv,2,367,21,19,32599.5,0.0903981,4.97709e+06,0.395419,33.71,0.1,0.618333,0.0166663,0.049756,0.283551,-0.00293045,0.716449,0.720528,0.461793,0.45704,0.100803,0.274087,0.976092,1,2026-10-02 14:56:01,147,4.3,0.164286,0,0,72.2477,0.403096,0,0.142857,0.809524,0.047619,0,0,-1,-1,0.115238
Green_YC310_Pro_5B88_261002_145833.csv,2,368,26,11,35662.1,0.102649,4.89645e+06,0.37929,33.74,0.03,0.623333,0.00500033,0.0491194,0.272577,-0.000636555,0.727423,0.703362,0.488375,0.483623,0.0922224,0.277476,0.96735,1,2026-10-02 14:58:33,152,4.3,0.164286,0,0,83.6013,0.545016,0,0.125,0.833333,0.0416667,0,0,-1,-1,0.114167
Green_YC310_Pro_5B88_261002_150102.csv,2,369,25,12,28298.3,0.0731933,4.92577e+06,0.385154,33.7,-0.04,0.616667,-0.00666633,0.0503131,0.293157,0.00119369,0.706843,0.686196,0.517014,0.512261,0.0866327,0.276554,0.959001,1,2026-10-02 15:01:02,149,4.3,0.164286,0,0,83.2408,0.54051,0,0.0833333,0.833333,0.0833333,0,0,-1,-1,0.121667
Green_YC310_Pro_5B88_261002_150331.csv,2,370,24,5,34373.8,0.0974952,4.87966e+06,0.375932,33.62,-0.08,0.603333,-0.0133337,0.0539018,0.355031,0.00358869,0.644969,0.683236,0.508319,0.509301,0.0849052,0.272715,0.958876,1,2026-10-02 15:03:31,149,4.4,0.171429,0,0,79.1209,0.489011,0,0.0526316,0.789474,0.157895,0,0,-1,-1,0.133846
Green_YC310_Pro_5B88_261002_150602.csv,2,371,24,17,32642.6,0.0905702,4.8941e+06,0.37882,33.53,-0.09,0.588333,-0.0149997,0.0549202,0.37259,0.00101843,0.62741,0.681227,0.499624,0.507292,0.0840271,0.268171,0.960587,1,2026-10-02 15:06:02,151,4.4,0.171429,0,0,79.4702,0.493378,0,0.0833333,0.708333,0.208333,0,0,-1,-1,0.122727
Green_YC310_Pro_5B88_261002_150832.csv,2,372,25,7,27639.8,0.0705591,5.15446e+06,0.430893,33.43,-0.1,0.571667,-0.0166663,0.0500221,0.28814,-0.00489806,0.71186,0.68017,0.500351,0.508019,0.0886144,0.261947,0.962038,1,2026-10-02 15:08:32,150,4.5,0.178571,0,0,80.819,0.510238,0,0.272727,0.5,0.227273,0,0,-1,-1,0.088
Green_YC310_Pro_5B88_261002_151106.csv,2,373,24,10,37814.1,0.111257,4.98575e+06,0.39715,33.38,-0.05,0.563333,-0.00833367,0.0532723,0.344178,0.00325023,0.655822,0.629816,0.509356,0.517024,0.0954192,0.257883,0.925402,1,2026-10-02 15:11:06,154,4.6,0.185714,0,0,79.2952,0.49119,0,0.0869565,0.826087,0.0869565,0,0,-1,-1,0.121818
Green_YC310_Pro_5B88_261002_151336.csv,2,374,24,4,37624.5,0.110498,4.97634e+06,0.395269,33.36,-0.02,0.56,-0.003333,0.0583961,0.432519,0.00512383,0.567481,0.639311,0.526641,0.526519,0.104442,0.254927,0.926986,1,2026-10-02 15:13:36,150,4.6,0.185714,0,0,81.0811,0.513514,0,0.105263,0.631579,0.157895,0.105263,0,-1,-1,0.1225
Green_YC310_Pro_5B88_261002_151603.csv,2,375,26,6,34406.6,0.0976263,5.09848e+06,0.419695,33.31,-0.05,0.551667,-0.00833333,0.0495131,0.279363,-0.00888304,0.720637,0.66878,0.515241,0.51512,0.101936,0.252828,0.952432,1,2026-10-02 15:16:03,147,4.6,0.185714,0,0,84.9673,0.562091,0,0.25,0.666667,0.0833333,0,0,-1,-1,0.122105
Green_YC310_Pro_5B88_261002_151834.csv,2,376,24,5,35935.4,0.103741,5.01387e+06,0.402773,33.27,-0.04,0.545,-0.006667,0.0526608,0.333635,0.00314775,0.666365,0.698983,0.503841,0.50372,0.0976061,0.251641,0.978084,1,2026-10-02 15:18:34,151,4.7,0.192857,0,0,80.6271,0.507839,0,0.1875,0.625,0.1875,0,0,-1,-1,0.135714
