Sheet Name,Segment,Index,total_beat_count,Sel_Min,diff,diff_n,mean,mean_n,temp,temp_raw_diff,temp_n,temp_diff,rise_low,rise_low_n,rise_low_diff,rise_low_n_inv,rise_low_n_inv_center,HR_n_center,HR_n_center_lim,diff_n_center,diff_anker,rl_inv_corr,inv_corr,datetime,time_gap_seconds,CGM,CGM_n,SMBG,SMBG_n,HR,HR_n,r20,r40,r60,r80,r100,time_gap_state,time_gap_slot,time_gap_offset_s,rise_low_50
Green_YC310_Pro_5B88_260928_202448.csv,1,1,36,9,32641.4,0.0905658,5.39408e+06,0.478816,33.36,0,0.56,0,0.0581818,0.428824,0,0.571176,0.571176,0.489736,0.489736,0.0905658,0.257857,0.271389,0.285714,2026-09-28 20:25:28,0,5.8,0.271429,0,0,79.1789,0.489736,0,0.30303,0.545455,0.0909091,0.0606061,1,0,0,0.1024
Green_YC310_Pro_5B88_260928_202709.csv,1,2,43,33,27435.3,0.0697413,5.48474e+06,0.496948,33.43,0.07,0.571667,0.0116667,0.0522727,0.326944,-0.00590907,0.673056,0.63152,0.592425,0.55008,0.078283,0.264129,0.271502,0.279555,2026-09-28 20:27:46,138,5.8,0.271429,0,0,92.2087,0.652609,0,0.386364,0.613636,0,0,1,1,0,0.101364
Green_YC310_Pro_5B88_260928_202924.csv,1,3,45,24,30770.8,0.0830834,5.52452e+06,0.504905,33.49,0.06,0.581667,0.00999967,0.056,0.391207,0.0037273,0.608793,0.646306,0.641301,0.564866,0.0743265,0.268117,0.271599,0.275664,2026-09-28 20:30:03,137,5.9,0.278571,0,0,95.6091,0.695114,0,0.244444,0.711111,0.0444444,0,1,2,0,0.104651
Green_YC310_Pro_5B88_260928_203147.csv,1,4,43,29,29034.1,0.0761363,5.53243e+06,0.506486,33.51,0.02,0.585,0.003333,0.0527273,0.334781,-0.00327273,0.665219,0.657069,0.690463,0.575629,0.0701546,0.270049,0.271929,0.274062,2026-09-28 20:32:24,141,6,0.285714,0,0,90.9091,0.636364,0,0.363636,0.636364,0,0,1,3,0,0.0990698
Green_YC310_Pro_5B88_260928_203403.csv,1,5,49,28,24306.5,0.0572259,5.57423e+06,0.514846,33.54,0.03,0.59,0.005,0.0504,0.294655,-0.0023273,0.705345,0.685166,0.726422,0.603726,0.0686175,0.27195,0.287838,0.28807,2026-09-28 20:34:42,138,6.2,0.3,0,0,103.521,0.794013,0,0.48,0.52,0,0,1,4,0,0.0910204
Green_YC310_Pro_5B88_260928_203623.csv,1,6,45,18,29618,0.0784719,5.56538e+06,0.513076,33.55,0.01,0.591667,0.00166667,0.0511111,0.306916,0.000711111,0.693084,0.701856,0.748891,0.620416,0.0663121,0.272963,0.297376,0.296596,2026-09-28 20:37:01,139,6.1,0.292857,0,0,97.2622,0.715778,0,0.444444,0.555556,0,0,1,5,0,0.101739
Green_YC310_Pro_5B88_260928_203840.csv,1,7,46,27,29205.6,0.0768224,5.65966e+06,0.531931,33.57,0.02,0.595,0.003333,0.0497872,0.28409,-0.00132387,0.71591,0.701159,0.73363,0.619719,0.0632386,0.274663,0.298516,0.296035,2026-09-28 20:39:20,139,6.3,0.307143,0,0,96.3015,0.703769,0,0.510638,0.489362,0,0,1,6,0,0.093617
Green_YC310_Pro_5B88_260928_204135.csv,1,8,47,17,22001.3,0.0480052,5.71528e+06,0.543055,33.6,0.03,0.6,0.005,0.0504167,0.294943,0.000629467,0.705057,0.694483,0.71215,0.613043,0.0683133,0.275168,0.295502,0.292516,2026-09-28 20:42:12,172,6.2,0.3,0,0,99.8584,0.74823,0,0.479167,0.520833,0,0,1,7,30,0.0933333
Green_YC310_Pro_5B88_260928_204353.csv,1,9,44,35,31317,0.0852681,5.63098e+06,0.526196,33.62,0.02,0.603333,0.00333333,0.0522727,0.326944,0.00185603,0.673056,0.698485,0.68445,0.585344,0.0733881,0.275147,0.302326,0.299362,2026-09-28 20:44:30,138,6.1,0.292857,0,0,93.8834,0.673542,0,0.386364,0.613636,0,0,1,8,30,0.0971429
Green_YC310_Pro_5B88_260928_204609.csv,1,10,43,40,31722.8,0.0868911,5.59057e+06,0.518113,33.67,0.05,0.611667,0.00833367,0.0490909,0.272085,-0.00318179,0.727915,0.697905,0.628528,0.584764,0.0903209,0.274199,0.308857,0.30684,2026-09-28 20:46:46,136,6,0.285714,0,0,90.5263,0.631579,0,0.545455,0.454545,0,0,1,9,30,0.0972727
Green_YC310_Pro_5B88_260928_204827.csv,1,11,41,34,34700.8,0.0988034,5.86359e+06,0.572718,33.72,0.05,0.62,0.008333,0.0507317,0.300374,0.00164081,0.699626,0.692744,0.625876,0.582112,0.0897727,0.276942,0.303472,0.298713,2026-09-28 20:49:05,139,5.9,0.278571,0,0,86.4371,0.580464,0,0.463415,0.536585,0,0,1,10,30,0.0985366
Green_YC310_Pro_5B88_260928_205046.csv,1,12,40,34,30048.5,0.0801939,5.06063e+06,0.412126,33.73,0.01,0.621667,0.00166667,0.0531707,0.342426,0.00243903,0.657574,0.688994,0.552581,0.578361,0.0904651,0.277321,0.311489,0.30635,2026-09-28 20:51:24,139,5.8,0.271429,0,0,84.9858,0.562322,0,0.341463,0.658537,0,0,1,11,30,0.103
Green_YC310_Pro_5B88_260928_205308.csv,1,13,38,37,32218.6,0.0888745,5.00101e+06,0.400202,33.74,0.01,0.623333,0.00166633,0.0497436,0.283338,-0.00342711,0.716662,0.684206,0.526934,0.573574,0.092398,0.277439,0.311298,0.306042,2026-09-28 20:53:47,143,5.7,0.264286,0,0,81.1966,0.514958,0,0.512821,0.487179,0,0,1,12,30,0.103077
Green_YC310_Pro_5B88_260928_205553.csv,1,14,38,37,36150.5,0.104602,4.99019e+06,0.398037,33.72,-0.02,0.62,-0.003333,0.0538462,0.354072,0.00410255,0.645928,0.669414,0.51489,0.56153,0.0927438,0.276315,0.301996,0.297864,2026-09-28 20:56:31,164,5.5,0.25,0,0,80.2817,0.503521,0,0.307692,0.692308,0,0,1,13,60,0.102051
Green_YC310_Pro_5B88_260928_205813.csv,1,15,39,29,30307.9,0.0812315,5.04393e+06,0.408785,33.71,-0.01,0.618333,-0.00166667,0.0525,0.330862,-0.0013462,0.669138,0.651425,0.503651,0.550291,0.0914807,0.276056,0.289679,0.285806,2026-09-28 20:58:50,139,5.5,0.25,0,0,81.1373,0.514216,0,0.375,0.625,0,0,1,14,60,0.099
Green_YC310_Pro_5B88_260928_210031.csv,1,16,37,36,34714.5,0.0988579,4.99563e+06,0.399126,33.7,-0.01,0.616667,-0.00166633,0.0552632,0.378503,0.00276316,0.621497,0.644939,0.499707,0.546347,0.0897313,0.2759,0.285435,0.281717,2026-09-28 21:01:09,139,5.5,0.25,0,0,78.6119,0.482649,0,0.236842,0.763158,0,0,1,15,60,0.104737
Green_YC310_Pro_5B88_260928_210250.csv,1,17,38,19,29994.5,0.0799779,5.21369e+06,0.442737,33.67,-0.03,0.611667,-0.00500033,0.0538462,0.354072,-0.00141705,0.645928,0.644183,0.505951,0.552591,0.0918692,0.273872,0.284863,0.283173,2026-09-28 21:03:28,139,5.5,0.25,0,0,81.5451,0.519314,0,0.307692,0.692308,0,0,1,16,60,0.0994872
Green_YC310_Pro_5B88_260928_210509.csv,1,18,37,31,37165.8,0.108663,5.21091e+06,0.442182,33.65,-0.02,0.608333,-0.00333367,0.0526316,0.333131,-0.00121462,0.666869,0.649037,0.533772,0.557445,0.0934036,0.272497,0.285104,0.284789,2026-09-28 21:05:47,139,5.4,0.242857,0,0,80.2023,0.502529,0,0.368421,0.631579,0,0,1,17,60,0.102632
Green_YC310_Pro_5B88_260928_210730.csv,1,19,42,35,29077.6,0.0763105,5.18885e+06,0.437769,33.62,-0.03,0.603333,-0.00499967,0.0544186,0.363941,0.001787,0.636059,0.65024,0.544886,0.558648,0.0953533,0.270509,0.285345,0.287019,2026-09-28 21:08:08,141,5.4,0.242857,0,0,88.8575,0.610719,0,0.27907,0.72093,0,0,1,18,60,0.0986047
Green_YC310_Pro_5B88_260928_211018.csv,1,20,37,31,40032.2,0.120129,5.16208e+06,0.432416,33.59,-0.03,0.598333,-0.00499967,0.0536842,0.351279,-0.000734389,0.648721,0.647793,0.53769,0.556201,0.0928781,0.269455,0.285502,0.288229,2026-09-28 21:11:18,190,5.4,0.242857,0,0,76.4463,0.455579,0,0.315789,0.684211,0,0,1,19,90,0.106316
Green_YC310_Pro_5B88_260928_211237.csv,1,21,38,35,36983.5,0.107934,5.15874e+06,0.431748,33.56,-0.03,0.593333,-0.00499967,0.0564103,0.39828,0.00272606,0.60172,0.66224,0.546773,0.565284,0.0821947,0.270134,0.296653,0.298701,2026-09-28 21:13:20,122,5.4,0.242857,0,0,79.0021,0.487526,0,0.179487,0.820513,0,0,1,20,90,0.103077
Green_YC310_Pro_5B88_260928_211457.csv,1,22,43,22,21065.1,0.0442604,5.29657e+06,0.459314,33.54,-0.02,0.59,-0.003333,0.0519048,0.320599,-0.00450554,0.679401,0.663886,0.55051,0.56693,0.0773764,0.270101,0.298058,0.300139,2026-09-28 21:15:35,135,5.4,0.242857,0,0,91.0374,0.637968,0,0.404762,0.595238,0,0,1,21,90,0.100976
Green_YC310_Pro_5B88_260928_211717.csv,1,23,35,34,36418.6,0.105674,5.16267e+06,0.432534,33.48,-0.06,0.58,-0.01,0.0583333,0.431437,0.00642853,0.568563,0.665533,0.554246,0.568576,0.0888128,0.264533,0.300796,0.308445,2026-09-28 21:17:57,142,5.4,0.242857,0,0,74.5209,0.431511,0,0.0833333,0.916667,0,0,1,22,90,0.110556
Green_YC310_Pro_5B88_260928_211933.csv,1,24,36,35,34910.7,0.0996427,5.15199e+06,0.430399,33.44,-0.04,0.573333,-0.00666667,0.0535135,0.348336,-0.00481979,0.651664,0.668486,0.555052,0.569382,0.101466,0.259759,0.304367,0.316791,2026-09-28 21:20:13,136,5.4,0.242857,0,0,77.642,0.470525,0,0.324324,0.675676,0,0,1,23,90,0.103243
Green_YC310_Pro_5B88_260928_212153.csv,1,25,38,36,35226.6,0.100906,5.14988e+06,0.429976,33.41,-0.03,0.568333,-0.00499967,0.0533333,0.34523,-0.000180167,0.65477,0.671439,0.555857,0.570187,0.0850378,0.261652,0.307605,0.318136,2026-09-28 21:22:32,139,5.4,0.242857,0,0,79.1667,0.489584,0,0.333333,0.666667,0,0,1,24,90,0.103158
Green_YC310_Pro_5B88_260928_212442.csv,1,26,43,15,19674.1,0.0386965,5.44554e+06,0.489108,33.37,-0.04,0.561667,-0.00666633,0.0512195,0.308785,-0.00211379,0.691215,0.680138,0.581311,0.578885,0.0683303,0.263078,0.311955,0.32106,2026-09-28 21:25:23,171,5.4,0.242857,0,0,91.2951,0.641189,0.0243902,0.390244,0.585366,0,0,1,25,120,0.096
Green_YC310_Pro_5B88_260928_212702.csv,1,27,39,36,33755.6,0.0950224,5.3251e+06,0.46502,33.35,-0.02,0.558333,-0.00333367,0.052,0.322241,0.0007805,0.677759,0.684487,0.573197,0.570772,0.06959,0.261761,0.317358,0.32778,2026-09-28 21:27:39,136,5.4,0.242857,0,0,83.7509,0.546886,0,0.4,0.6,0,0,1,26,120,0.099
Green_YC310_Pro_5B88_260928_212920.csv,1,28,40,20,22404.6,0.0496186,5.44378e+06,0.488755,33.33,-0.02,0.555,-0.003333,0.0546341,0.367658,0.00263415,0.632342,0.684487,0.528647,0.570772,0.0722302,0.260152,0.324924,0.336954,2026-09-28 21:29:59,140,5.4,0.242857,0,0,84.6262,0.557827,0,0.268293,0.731707,0,0,1,27,120,0.1
Green_YC310_Pro_5B88_260928_213139.csv,1,29,36,35,33665.3,0.0946611,5.36394e+06,0.472787,33.31,-0.02,0.551667,-0.00333333,0.0572973,0.413574,0.0026632,0.586426,0.688692,0.536229,0.574977,0.0750966,0.258496,0.327781,0.341468,2026-09-28 21:32:19,140,5.4,0.242857,0,0,76.1636,0.452045,0,0.135135,0.864865,0,0,1,28,120,0.103784
Green_YC310_Pro_5B88_260928_213358.csv,1,30,41,30,26997,0.0679878,5.35585e+06,0.471169,33.29,-0.02,0.548333,-0.00333367,0.0509524,0.304179,-0.00634492,0.695821,0.695554,0.598814,0.581839,0.0810101,0.256196,0.324244,0.34023,2026-09-28 21:34:37,138,5.4,0.242857,0,0,87.4822,0.593528,0,0.452381,0.547619,0,0,1,29,120,0.100952
Green_YC310_Pro_5B88_260928_213617.csv,1,31,47,24,26839.7,0.067359,5.39578e+06,0.479157,33.27,-0.02,0.545,-0.003333,0.0507317,0.300374,-0.000220693,0.699626,0.699626,0.745583,0.585911,0.067359,0.258028,0.305438,0.319593,2026-09-28 21:36:58,141,5.4,0.242857,0,0,99.6466,0.745583,0,0.463415,0.536585,0,0,1,30,120,0.102857
