Sheet Name,Segment,Index,total_beat_count,Sel_Min,diff,diff_n,mean,mean_n,temp,temp_raw_diff,temp_n,temp_diff,rise_low,rise_low_n,rise_low_diff,rise_low_n_inv,rise_low_n_inv_center,HR_n_center,HR_n_center_lim,diff_n_center,diff_anker,rl_inv_corr,inv_corr,datetime,time_gap_seconds,CGM,CGM_n,SMBG,SMBG_n,HR,HR_n,r20,r40,r60,r80,r100,time_gap_state,time_gap_slot,time_gap_offset_s,rise_low_50
Green_YC310_Pro_5B88_261010_032945.csv,1,1,26,1,46127.9,0.144511,4.47796e+06,0.295592,33.32,0,0.553333,0,0.0502692,0.2924,0,0.7076,0.7076,0.576159,0.576159,0.144511,0.244364,0.242857,0.242857,2026-10-10 03:29:45,0,4.9,0.207143,5.4,0.242857,86.0927,0.576159,0.142857,0.214286,0.357143,0.214286,0.0714286,0,-1,-1,0.177143
Green_YC310_Pro_5B88_261010_033215.csv,1,2,25,12,16162,0.0246482,3.60967e+06,0.121935,33.37,0.05,0.561667,0.00833367,0.0470731,0.237295,-0.00319607,0.762705,0.706013,0.495004,0.574572,0.0865926,0.259221,0.242857,0.245409,2026-10-10 03:32:15,150,5,0.214286,0,0,84.0807,0.551009,0,0.166667,0.833333,0,0,0,-1,-1,0.111818
Green_YC310_Pro_5B88_261010_033445.csv,1,3,21,9,38604.4,0.114418,4.28583e+06,0.257166,33.4,0.03,0.566667,0.00499967,0.0598437,0.457478,0.0127706,0.542522,0.647735,0.406785,0.516294,0.0906186,0.259948,0.242857,0.243736,2026-10-10 03:34:45,150,5.1,0.221429,0,0,68.6275,0.357844,0,0.047619,0.619048,0.333333,0,0,-1,-1,0.137895
Green_YC310_Pro_5B88_261010_033715.csv,1,4,19,10,49147.3,0.156589,4.37021e+06,0.274042,33.46,0.06,0.576667,0.00999967,0.0604096,0.467235,0.000565928,0.532765,0.632857,0.374298,0.501415,0.112659,0.258447,0.242857,0.22945,2026-10-10 03:37:15,150,4.9,0.207143,0,0,64.9203,0.311504,0,0.0526316,0.631579,0.263158,0.0526316,0,-1,-1,0.12625
Green_YC310_Pro_5B88_261010_033955.csv,1,5,22,21,38459.6,0.113838,4.50622e+06,0.301244,33.58,0.12,0.596667,0.0199997,0.0496619,0.28193,-0.0107477,0.71807,0.635929,0.375296,0.502413,0.134698,0.260098,0.242857,0.212006,2026-10-10 03:39:55,160,4.8,0.2,0,0,72.3684,0.404605,0,0.0434783,0.913043,0.0434783,0,0,-1,-1,0.12
Green_YC310_Pro_5B88_261010_034216.csv,1,6,22,13,38202,0.112808,4.53473e+06,0.306946,33.72,0.14,0.62,0.023333,0.0532224,0.343318,0.00356052,0.656682,0.656952,0.40306,0.523436,0.144655,0.265353,0.242857,0.204511,2026-10-10 03:42:16,141,4.8,0.2,0,0,70.4376,0.38047,0,0.0434783,0.869565,0.0869565,0,0,-1,-1,0.132727
Green_YC310_Pro_5B88_261010_034446.csv,1,7,22,7,56614.7,0.186459,4.43678e+06,0.287356,33.77,0.05,0.628333,0.00833333,0.0567516,0.404166,0.00352925,0.595834,0.655552,0.424106,0.544482,0.161692,0.264383,0.242857,0.211647,2026-10-10 03:44:46,150,4.8,0.2,0,0,73.0088,0.41261,0,0,0.761905,0.238095,0,0,-1,-1,0.118947
Green_YC310_Pro_5B88_261010_034715.csv,1,8,24,15,50260.4,0.161042,4.61607e+06,0.323214,33.85,0.08,0.641667,0.0133337,0.0499056,0.28613,-0.00684605,0.71387,0.640489,0.427562,0.547938,0.186073,0.263438,0.242857,0.218474,2026-10-10 03:47:15,149,4.8,0.2,0,0,77.4194,0.467742,0,0.166667,0.75,0.0833333,0,0,-1,-1,0.113043
Green_YC310_Pro_5B88_261010_034945.csv,1,9,21,7,68937.5,0.23575,5.15883e+06,0.431766,33.83,-0.02,0.638333,-0.00333367,0.0600838,0.461617,0.0101782,0.538383,0.59511,0.418836,0.539212,0.205843,0.258212,0.195543,0.208689,2026-10-10 03:49:45,150,4.8,0.2,0,0,71.267,0.390837,0,0,0.727273,0.272727,0,0,-1,-1,0.128889
Green_YC310_Pro_5B88_261010_035218.csv,1,10,22,14,57707.7,0.190831,5.0707e+06,0.41414,33.76,-0.07,0.626667,-0.0116663,0.0571014,0.410196,-0.00298243,0.589804,0.560986,0.405891,0.526267,0.222395,0.251039,0.160135,0.200266,2026-10-10 03:52:18,153,4.9,0.207143,0,0,74.0741,0.425926,0,0.047619,0.666667,0.285714,0,0,-1,-1,0.12
Green_YC310_Pro_5B88_261010_035448.csv,1,11,21,14,78042.6,0.27217,5.49221e+06,0.498442,33.68,-0.08,0.613333,-0.0133337,0.0608049,0.474049,0.00370346,0.525951,0.557167,0.392383,0.522448,0.227544,0.245748,0.155668,0.188636,2026-10-10 03:54:48,150,4.8,0.2,0,0,70.4698,0.380873,0,0,0.636364,0.363636,0,0,-1,-1,0.127273
Green_YC310_Pro_5B88_261010_035716.csv,1,12,21,10,53750.7,0.175003,5.35088e+06,0.470175,33.61,-0.07,0.601667,-0.0116663,0.0572662,0.413039,-0.00353866,0.586961,0.556195,0.371585,0.521476,0.217304,0.244232,0.154545,0.188551,2026-10-10 03:57:16,148,4.9,0.207143,0,0,70.5487,0.381859,0,0.136364,0.545455,0.272727,0.0454545,0,-1,-1,0.116
Green_YC310_Pro_5B88_261010_035948.csv,1,13,20,13,71759.4,0.247038,5.6361e+06,0.527221,33.57,-0.04,0.595,-0.006667,0.0608653,0.475092,0.00359911,0.524908,0.554864,0.367099,0.520146,0.209737,0.243727,0.153321,0.183757,2026-10-10 03:59:48,152,5.1,0.221429,0,0,67.3401,0.341751,0,0,0.666667,0.333333,0,0,-1,-1,0.128571
Green_YC310_Pro_5B88_261010_040225.csv,1,14,22,8,68718.4,0.234874,5.61815e+06,0.52363,33.53,-0.04,0.588333,-0.00666667,0.0575145,0.417319,-0.00335081,0.582681,0.553075,0.377686,0.530733,0.207171,0.242167,0.151866,0.189421,2026-10-10 04:02:25,157,5.2,0.228571,0,0,72.6073,0.407591,0,0.0434783,0.695652,0.26087,0,0,-1,-1,0.122
Green_YC310_Pro_5B88_261010_040452.csv,1,15,22,10,51825.9,0.167304,5.51325e+06,0.502649,33.49,-0.04,0.581667,-0.00666633,0.0589826,0.442632,0.00146814,0.557368,0.551635,0.378634,0.531681,0.217918,0.237796,0.150961,0.188069,2026-10-10 04:04:52,147,5.4,0.242857,0,0,73.0897,0.413621,0,0.0952381,0.666667,0.190476,0.047619,0,-1,-1,0.124
Green_YC310_Pro_5B88_261010_040717.csv,1,16,20,11,79819.7,0.279279,5.66858e+06,0.533717,33.43,-0.06,0.571667,-0.0100003,0.0611158,0.47941,0.00213319,0.52059,0.55213,0.363047,0.516094,0.22965,0.232166,0.152285,0.192109,2026-10-10 04:07:17,145,5.7,0.264286,0,0,67.5676,0.344595,0,0.047619,0.571429,0.333333,0.047619,0,-1,-1,0.12125
Green_YC310_Pro_5B88_261010_040947.csv,1,17,20,16,67956.4,0.231826,5.5549e+06,0.51098,33.41,-0.02,0.568333,-0.00333367,0.0574285,0.415836,-0.00368733,0.584164,0.566905,0.33201,0.485057,0.242366,0.228429,0.16791,0.190912,2026-10-10 04:09:47,150,5.9,0.278571,0,0,67.9502,0.349377,0,0.047619,0.809524,0.142857,0,0,-1,-1,0.124762
Green_YC310_Pro_5B88_261010_041221.csv,1,18,19,11,61363.4,0.205453,5.36985e+06,0.47397,33.4,-0.01,0.566667,-0.00166633,0.0577453,0.421298,0.00031678,0.578702,0.593124,0.322831,0.475878,0.229493,0.230622,0.194938,0.193577,2026-10-10 04:12:21,154,6.1,0.292857,0,0,62.7753,0.284691,0,0.105263,0.631579,0.263158,0,0,-1,-1,0.12125
Green_YC310_Pro_5B88_261010_041446.csv,1,19,21,12,70164.6,0.240659,5.52579e+06,0.505157,33.37,-0.03,0.561667,-0.00500033,0.0563098,0.396548,-0.00143553,0.603452,0.616507,0.334424,0.487471,0.223297,0.230354,0.219212,0.196615,2026-10-10 04:14:46,145,6.1,0.292857,0,0,68.2557,0.353196,0,0.0454545,0.772727,0.181818,0,0,-1,-1,0.121
Green_YC310_Pro_5B88_261010_041716.csv,1,20,21,19,61604.7,0.206419,5.62765e+06,0.525529,33.32,-0.05,0.553333,-0.00833367,0.0533599,0.345688,-0.0029499,0.654312,0.561345,0.3651,0.518147,0.238901,0.224432,0.165135,0.201234,2026-10-10 04:17:16,150,6.1,0.292857,0,0,69.2308,0.365385,0,0,0.909091,0.0909091,0,0,-1,-1,0.113636
Green_YC310_Pro_5B88_261010_041946.csv,1,21,16,3,85527.1,0.302109,4.58756e+06,0.317513,33.27,-0.05,0.545,-0.008333,0.0673434,0.586783,0.0139835,0.413217,0.510088,0.329154,0.4822,0.251206,0.219206,0.115132,0.204019,2026-10-10 04:19:46,150,5.9,0.278571,0,0,53.8721,0.173401,0,0,0.307692,0.538462,0.153846,0,-1,-1,0.156
Green_YC310_Pro_5B88_261010_042217.csv,1,22,22,4,58546.9,0.194188,4.4253e+06,0.285061,33.29,0.02,0.548333,0.00333333,0.0588529,0.440395,-0.00849047,0.559605,0.515553,0.314378,0.467425,0.221454,0.226539,0.12158,0.202679,2026-10-10 04:22:17,151,5.7,0.264286,0,0,71.0441,0.388051,0,0.0555556,0.666667,0.222222,0.0555556,0,-1,-1,0.12
Green_YC310_Pro_5B88_261010_042446.csv,1,23,20,15,58832.6,0.195331,4.57686e+06,0.315373,33.28,-0.01,0.546667,-0.00166633,0.0605826,0.470217,0.00172966,0.529783,0.561616,0.320774,0.473821,0.189188,0.232827,0.168569,0.197548,2026-10-10 04:24:46,149,5.8,0.271429,0,0,65.4308,0.317885,0,0.05,0.65,0.3,0,0,-1,-1,0.127
Green_YC310_Pro_5B88_261010_042717.csv,1,24,21,9,52975.1,0.1719,4.52911e+06,0.305821,33.3,0.02,0.55,0.003333,0.0549271,0.372708,-0.00565555,0.627292,0.581653,0.347254,0.493858,0.194875,0.232678,0.189301,0.194517,2026-10-10 04:27:17,151,5.8,0.271429,0,0,71.6724,0.395905,0,0.0526316,0.736842,0.210526,0,0,-1,-1,0.118947
Green_YC310_Pro_5B88_261010_042945.csv,1,25,20,7,58981.7,0.195927,4.66886e+06,0.333773,33.28,-0.02,0.546667,-0.00333333,0.0581866,0.428907,0.00325951,0.571093,0.587883,0.351048,0.497652,0.217393,0.226871,0.196263,0.195598,2026-10-10 04:29:45,148,5.8,0.271429,0,0,66.0066,0.325083,0,0,0.736842,0.263158,0,0,-1,-1,0.123
Green_YC310_Pro_5B88_261010_043216.csv,1,26,20,7,75721.6,0.262887,5.17896e+06,0.435792,33.25,-0.03,0.541667,-0.00500033,0.0585246,0.434735,0.000338027,0.565265,0.559866,0.343446,0.49005,0.207367,0.227412,0.169068,0.198858,2026-10-10 04:32:16,151,5.8,0.271429,0,0,68.6499,0.358124,0,0.047619,0.761905,0.190476,0,0,-1,-1,0.122105
Green_YC310_Pro_5B88_261010_043449.csv,1,27,21,4,45455.1,0.14182,4.84201e+06,0.368402,33.22,-0.03,0.536667,-0.00500033,0.0598021,0.456761,0.00127752,0.543239,0.592896,0.356546,0.50315,0.189861,0.229532,0.203004,0.199637,2026-10-10 04:34:49,153,5.9,0.278571,0,0,66.5962,0.332452,0,0,0.684211,0.263158,0.0526316,0,-1,-1,0.12
Green_YC310_Pro_5B88_261010_043720.csv,1,28,22,12,46808.1,0.147232,4.72737e+06,0.345474,33.22,0,0.536667,-3.33333e-07,0.0521261,0.324416,-0.00767595,0.675584,0.623209,0.379063,0.525666,0.164877,0.234808,0.234113,0.199499,2026-10-10 04:37:20,151,5.8,0.271429,0,0,72.1311,0.401639,0,0.0952381,0.809524,0.0952381,0,0,-1,-1,0.119048
Green_YC310_Pro_5B88_261010_043946.csv,1,29,21,5,61395,0.20558,5.36867e+06,0.473734,33.21,-0.01,0.535,-0.001667,0.056601,0.401569,0.00447493,0.598431,0.650345,0.425553,0.552802,0.206939,0.2254,0.262009,0.202031,2026-10-10 04:39:46,146,5.8,0.271429,0,0,72.2477,0.403096,0,0.2,0.6,0.2,0,0,-1,-1,0.124286
Green_YC310_Pro_5B88_261010_044215.csv,1,30,24,5,77001.6,0.268006,5.23574e+06,0.447147,33.23,0.02,0.538333,0.00333333,0.0490319,0.271067,-0.0075691,0.728933,0.671766,0.394344,0.521593,0.2237,0.222912,0.28398,0.2107,2026-10-10 04:42:15,149,5.7,0.264286,0,0,77.7538,0.471922,0,0.35,0.45,0.15,0.05,0,-1,-1,0.103333
Green_YC310_Pro_5B88_261010_044447.csv,1,31,19,16,59038.8,0.196155,5.28219e+06,0.456438,33.28,0.05,0.546667,0.00833367,0.0547255,0.369232,0.00569358,0.630768,0.684086,0.350923,0.478172,0.215974,0.227171,0.296482,0.215524,2026-10-10 04:44:47,152,5.6,0.257143,0,0,62.8445,0.285556,0,0,0.833333,0.166667,0,0,-1,-1,0.12
Green_YC310_Pro_5B88_261010_044719.csv,1,32,21,13,60895.2,0.203581,5.29366e+06,0.458733,33.37,0.09,0.561667,0.0149997,0.0480494,0.254127,-0.00667612,0.745873,0.716695,0.329859,0.457108,0.195269,0.236273,0.328713,0.224622,2026-10-10 04:47:19,152,5.7,0.264286,0,0,68.8525,0.360656,0,0.227273,0.727273,0.0454545,0,0,-1,-1,0.107619
Green_YC310_Pro_5B88_261010_044946.csv,1,33,20,12,54439.3,0.177757,5.31545e+06,0.46309,33.43,0.06,0.571667,0.00999967,0.0481427,0.255736,9.32963e-05,0.744264,0.752079,0.326366,0.453615,0.188892,0.240772,0.363404,0.228795,2026-10-10 04:49:46,147,5.7,0.264286,0,0,65.0054,0.312567,0,0.0588235,0.941176,0,0,0,-1,-1,0.110476
Green_YC310_Pro_5B88_261010_045218.csv,1,34,20,12,56394.3,0.185577,5.30982e+06,0.461964,33.47,0.04,0.578333,0.00666633,0.0464229,0.226085,-0.0017198,0.773915,0.754118,0.315285,0.442534,0.185337,0.243625,0.364593,0.236462,2026-10-10 04:52:18,152,5.7,0.264286,0,0,65.5738,0.319673,0,0.0555556,0.944444,0,0,0,-1,-1,0.111
Green_YC310_Pro_5B88_261010_045446.csv,1,35,20,16,58169.6,0.192678,5.33708e+06,0.467415,33.5,0.03,0.583333,0.00500033,0.0489906,0.270356,0.00256775,0.729644,0.744174,0.313614,0.440863,0.193754,0.243424,0.353721,0.235953,2026-10-10 04:54:46,148,5.7,0.264286,0,0,65.3595,0.316994,0,0,1,0,0,0,-1,-1,0.11
Green_YC310_Pro_5B88_261010_045717.csv,1,36,19,17,58211.2,0.192845,5.24399e+06,0.448798,33.51,0.01,0.585,0.001667,0.0490302,0.271038,3.9632e-05,0.728962,0.727961,0.301379,0.428628,0.198425,0.242963,0.336631,0.233082,2026-10-10 04:57:17,151,5.5,0.25,0,0,64.3341,0.304176,0,0,0.944444,0.0555556,0,0,-1,-1,0.107
Green_YC310_Pro_5B88_261010_045950.csv,1,37,19,14,62437.7,0.209751,5.28322e+06,0.456644,33.53,0.02,0.588333,0.00333333,0.0492439,0.274723,0.000213729,0.725277,0.73929,0.306096,0.433345,0.194257,0.244894,0.347069,0.230431,2026-10-10 04:59:50,153,5.4,0.242857,0,0,62.6374,0.282967,0,0.0526316,0.894737,0.0526316,0,0,-1,-1,0.11
Green_YC310_Pro_5B88_261010_050215.csv,1,38,19,15,60267.2,0.201069,5.29524e+06,0.459048,33.53,0,0.588333,3.33333e-07,0.0481498,0.255859,-0.00109407,0.744141,0.750619,0.310813,0.438062,0.190088,0.245775,0.357614,0.228328,2026-10-10 05:02:15,145,5.3,0.235714,0,0,63.9731,0.299664,0,0,1,0,0,0,-1,-1,0.107
Green_YC310_Pro_5B88_261010_050446.csv,1,39,21,13,52606.6,0.170426,5.48468e+06,0.496935,33.54,0.01,0.59,0.001667,0.0463042,0.224038,-0.00184559,0.775962,0.727222,0.320094,0.447344,0.186635,0.247029,0.333466,0.229072,2026-10-10 05:04:46,151,5.2,0.228571,0,0,67.0927,0.338659,0,0.25,0.75,0,0,0,-1,-1,0.105455
Green_YC310_Pro_5B88_261010_050718.csv,1,40,20,12,54810.4,0.179242,5.53144e+06,0.506288,33.5,-0.04,0.583333,-0.00666667,0.0468805,0.233974,0.00057627,0.766026,0.703825,0.330942,0.458191,0.183181,0.245657,0.309648,0.232356,2026-10-10 05:07:18,152,4.9,0.207143,0,0,64.8649,0.310811,0,0.105263,0.894737,0,0,0,-1,-1,0.10381
Green_YC310_Pro_5B88_261010_050947.csv,1,41,21,8,59968.6,0.199874,5.55236e+06,0.510473,33.48,-0.02,0.58,-0.003333,0.0546722,0.368313,0.00779168,0.631687,0.691264,0.3314,0.458649,0.201493,0.240739,0.296838,0.235779,2026-10-10 05:09:47,149,4.9,0.207143,0,0,69.0789,0.363486,0,0.05,0.75,0.15,0.05,0,-1,-1,0.112941
Green_YC310_Pro_5B88_261010_051216.csv,1,42,20,19,66340.9,0.225364,5.53335e+06,0.50667,33.43,-0.05,0.571667,-0.00833333,0.0529926,0.339355,-0.0016796,0.660645,0.678704,0.310744,0.446088,0.218161,0.234592,0.284358,0.22899,2026-10-10 05:12:16,149,4.9,0.207143,0,0,63.0252,0.287815,0,0,0.904762,0.0952381,0,0,-1,-1,0.117
Green_YC310_Pro_5B88_261010_051448.csv,1,43,20,16,67311.3,0.229245,5.62915e+06,0.525831,33.43,0,0.571667,-3.33333e-07,0.0492182,0.27428,-0.00377436,0.72572,0.703915,0.293343,0.428687,0.230797,0.231923,0.30964,0.220396,2026-10-10 05:14:48,152,5.1,0.221429,0,0,64.3087,0.303859,0,0.0526316,0.947368,0,0,0,-1,-1,0.108571
Green_YC310_Pro_5B88_261010_051717.csv,1,44,19,17,69445.6,0.237782,5.64885e+06,0.52977,33.41,-0.02,0.568333,-0.00333367,0.0502853,0.292678,0.00106715,0.707322,0.730064,0.299369,0.434713,0.220807,0.232982,0.335971,0.216056,2026-10-10 05:17:17,149,5.1,0.221429,0,0,62.2271,0.277839,0,0,0.947368,0.0526316,0,0,-1,-1,0.114
Green_YC310_Pro_5B88_261010_051946.csv,1,45,22,18,58460.4,0.193842,5.69096e+06,0.538192,33.41,0,0.568333,3.33333e-07,0.0460762,0.220107,-0.00420909,0.779893,0.741459,0.316408,0.446108,0.215366,0.234131,0.347525,0.221978,2026-10-10 05:19:46,149,5.2,0.228571,0,0,72.6073,0.407591,0,0.238095,0.761905,0,0,0,-1,-1,0.106957
Green_YC310_Pro_5B88_261010_052220.csv,1,46,20,18,68165.5,0.232662,5.82014e+06,0.564028,33.4,-0.01,0.566667,-0.00166633,0.0491751,0.273536,0.00309887,0.726464,0.73716,0.321865,0.451564,0.214474,0.233794,0.343428,0.227861,2026-10-10 05:22:20,154,5.3,0.235714,0,0,64.3087,0.303859,0,0,1,0,0,0,-1,-1,0.116
Green_YC310_Pro_5B88_261010_052445.csv,1,47,19,16,68776.5,0.235106,5.82085e+06,0.56417,33.38,-0.02,0.563333,-0.00333367,0.0510332,0.305572,0.00185806,0.694428,0.719009,0.327321,0.45702,0.207031,0.234314,0.325574,0.229696,2026-10-10 05:24:45,145,5.4,0.242857,0,0,64.1892,0.302365,0,0,0.95,0.05,0,0,-1,-1,0.113
Green_YC310_Pro_5B88_261010_052717.csv,1,48,19,16,59032.6,0.19613,4.87931e+06,0.375861,33.38,0,0.563333,3.33333e-07,0.0492346,0.274562,-0.00179858,0.725438,0.702772,0.316684,0.446383,0.199588,0.235886,0.309598,0.229923,2026-10-10 05:27:17,152,5.6,0.257143,0,0,63.9731,0.299664,0,0.0555556,0.944444,0,0,0,-1,-1,0.115556
Green_YC310_Pro_5B88_261010_052948.csv,1,49,21,11,51017.5,0.16407,4.82901e+06,0.365801,33.37,-0.01,0.561667,-0.00166633,0.0526945,0.334216,0.00345993,0.665784,0.697072,0.306046,0.440683,0.187516,0.23791,0.304188,0.227499,2026-10-10 05:29:48,151,5.6,0.257143,0,0,71.754,0.396925,0,0.0588235,0.764706,0.0588235,0.117647,0,-1,-1,0.106667
Green_YC310_Pro_5B88_261010_053216.csv,1,50,19,17,53714.4,0.174858,4.77238e+06,0.354477,33.34,-0.03,0.556667,-0.00500033,0.0504407,0.295357,-0.00225381,0.704643,0.699995,0.292017,0.426654,0.175445,0.238882,0.307547,0.226077,2026-10-10 05:32:16,148,5.7,0.264286,0,0,64.9943,0.312429,0,0.05,0.9,0.05,0,0,-1,-1,0.112632
Green_YC310_Pro_5B88_261010_053449.csv,1,51,18,13,56704.8,0.186819,4.77651e+06,0.355302,33.36,0.02,0.56,0.003333,0.048726,0.265793,-0.00171468,0.734207,0.720857,0.284198,0.418835,0.172875,0.240476,0.32867,0.224597,2026-10-10 05:34:49,153,5.8,0.271429,0,0,60.6061,0.257576,0,0.0588235,0.941176,0,0,0,-1,-1,0.110526
Green_YC310_Pro_5B88_261010_053717.csv,1,52,18,16,55969.6,0.183879,4.78472e+06,0.356943,33.36,0,0.56,-1.11022e-16,0.0490647,0.271633,0.000338739,0.728367,0.738614,0.28259,0.417227,0.170306,0.241019,0.346659,0.227433,2026-10-10 05:37:17,148,5.8,0.271429,0,0,62.069,0.275863,0,0,1,0,0,0,-1,-1,0.110526
Green_YC310_Pro_5B88_261010_053946.csv,1,53,20,16,45055,0.14022,4.82703e+06,0.365406,33.34,-0.02,0.556667,-0.00333333,0.0469136,0.234545,-0.0021511,0.765455,0.753267,0.319481,0.431881,0.152227,0.243785,0.361636,0.230004,2026-10-10 05:39:46,149,5.8,0.271429,0,0,65.1466,0.314333,0,0.15,0.85,0,0,0,-1,-1,0.108571
Green_YC310_Pro_5B88_261010_054216.csv,1,54,21,15,43145.5,0.132582,4.64308e+06,0.328616,33.33,-0.01,0.555,-0.001667,0.0461762,0.221832,-0.000737362,0.778168,0.759655,0.330141,0.438269,0.15065,0.243593,0.368369,0.235056,2026-10-10 05:42:16,150,5.8,0.271429,0,0,69.4598,0.368248,0,0.238095,0.761905,0,0,0,-1,-1,0.0990476
Green_YC310_Pro_5B88_261010_054445.csv,1,55,19,17,51785.6,0.167142,4.69082e+06,0.338165,33.33,0,0.555,-3.33067e-16,0.0471772,0.23909,0.00100103,0.76091,0.766043,0.340802,0.444656,0.156966,0.242259,0.37506,0.238062,2026-10-10 05:44:45,149,5.8,0.271429,0,0,65.7439,0.321799,0,0.0526316,0.947368,0,0,0,-1,-1,0.108
Green_YC310_Pro_5B88_261010_054716.csv,1,56,19,13,50249.1,0.160997,4.72338e+06,0.344675,33.31,-0.02,0.551667,-0.00333333,0.0472851,0.24095,0.000107914,0.75905,0.728599,0.326111,0.429966,0.162858,0.239964,0.338003,0.240427,2026-10-10 05:47:16,151,5.8,0.271429,0,0,65.0685,0.313356,0,0.2,0.8,0,0,0,-1,-1,0.107368
Green_YC310_Pro_5B88_261010_054947.csv,1,57,20,11,50574,0.162296,4.69819e+06,0.339638,33.31,0,0.551667,-3.33333e-07,0.0526915,0.334164,0.00540642,0.665836,0.720485,0.316698,0.421852,0.159504,0.240672,0.330229,0.240173,2026-10-10 05:49:47,151,5.8,0.271429,0,0,65.9341,0.324176,0,0.0526316,0.736842,0.210526,0,0,-1,-1,0.112941
Green_YC310_Pro_5B88_261010_055218.csv,1,58,19,17,48106.5,0.152426,4.76902e+06,0.353804,33.29,-0.02,0.548333,-0.00333367,0.0468228,0.23298,-0.00586867,0.76702,0.741064,0.3316,0.436754,0.15959,0.239603,0.351228,0.239922,2026-10-10 05:52:18,151,5.8,0.271429,0,0,64.4068,0.305085,0,0.157895,0.842105,0,0,0,-1,-1,0.106
Green_YC310_Pro_5B88_261010_055446.csv,1,59,19,15,52803.3,0.171213,4.88225e+06,0.37645,33.27,-0.02,0.545,-0.003333,0.0469759,0.23562,0.000153143,0.76438,0.779243,0.365539,0.470693,0.156527,0.239199,0.389896,0.240492,2026-10-10 05:54:46,148,5.8,0.271429,0,0,65.8199,0.322749,0,0.0588235,0.941176,0,0,0,-1,-1,0.106
Green_YC310_Pro_5B88_261010_055718.csv,1,60,24,23,42814.2,0.131257,4.88949e+06,0.377898,33.27,0,0.545,4.44089e-16,0.0437898,0.180686,-0.00318613,0.819314,0.806329,0.425765,0.497779,0.151021,0.240361,0.417413,0.241405,2026-10-10 05:57:18,152,5.8,0.271429,0,0,77.5027,0.468784,0,0.44,0.56,0,0,0,-1,-1,0.0928
Green_YC310_Pro_5B88_261010_055948.csv,1,61,24,23,47527.7,0.150111,4.84171e+06,0.368343,33.26,-0.01,0.543333,-0.00166667,0.0421099,0.151722,-0.00167995,0.848278,0.810933,0.461499,0.502382,0.150592,0.239926,0.422456,0.246265,2026-10-10 05:59:48,150,5.8,0.271429,0,0,78.8609,0.485761,0,0.44,0.56,0,0,0,-1,-1,0.0944
Green_YC310_Pro_5B88_261010_060219.csv,1,62,24,21,52602.2,0.170409,4.78645e+06,0.357291,33.25,-0.01,0.541667,-0.00166633,0.0449119,0.200032,0.00280198,0.799968,0.815536,0.48351,0.506986,0.161286,0.237143,0.427505,0.250735,2026-10-10 06:02:19,151,5.8,0.271429,0,0,77.8378,0.472973,0,0.36,0.64,0,0,0,-1,-1,0.1
Green_YC310_Pro_5B88_261010_060449.csv,1,63,24,20,54689.4,0.178757,5.25171e+06,0.450342,33.23,-0.02,0.538333,-0.00333367,0.0459079,0.217206,0.000996043,0.782794,0.814999,0.491797,0.515273,0.180161,0.232106,0.427481,0.253516,2026-10-10 06:04:49,150,5.8,0.271429,0,0,79.9112,0.49889,0,0.44,0.48,0.08,0,0,-1,-1,0.0956522
Green_YC310_Pro_5B88_261010_060715.csv,1,64,21,18,57829.1,0.191316,5.20439e+06,0.440877,33.21,-0.02,0.535,-0.003333,0.0422033,0.153332,-0.00370463,0.846668,0.815484,0.479037,0.502512,0.177025,0.231717,0.428538,0.252363,2026-10-10 06:07:15,146,5.8,0.271429,0,0,71.6724,0.395905,0,0.47619,0.52381,0,0,0,-1,-1,0.0942857
Green_YC310_Pro_5B88_261010_060945.csv,1,65,25,20,49899.5,0.159598,5.20579e+06,0.441157,33.19,-0.02,0.531667,-0.00333333,0.0457331,0.214192,0.00352983,0.785808,0.803134,0.46337,0.490161,0.172803,0.231558,0.41681,0.250231,2026-10-10 06:09:45,150,5.8,0.271429,0,0,81.7884,0.522355,0,0.4,0.56,0.04,0,0,-1,-1,0.095
Green_YC310_Pro_5B88_261010_061216.csv,1,66,23,17,55175.5,0.180702,5.21545e+06,0.443091,33.17,-0.02,0.528333,-0.00333367,0.0452434,0.205749,-0.000489673,0.794251,0.790992,0.452413,0.479204,0.163326,0.232508,0.405335,0.250276,2026-10-10 06:12:16,151,5.8,0.271429,0,0,77.8781,0.473476,0,0.333333,0.625,0.0416667,0,0,-1,-1,0.0982609
Green_YC310_Pro_5B88_261010_061445.csv,1,67,22,20,53049.5,0.172198,5.25486e+06,0.450972,33.16,-0.01,0.526667,-0.00166633,0.0455099,0.210343,0.00026648,0.789657,0.808826,0.466638,0.493429,0.149677,0.234865,0.423817,0.249975,2026-10-10 06:14:45,149,5.8,0.271429,0,0,74.2407,0.428009,0,0.217391,0.782609,0,0,0,-1,-1,0.0991304
Green_YC310_Pro_5B88_261010_061716.csv,1,68,25,17,39662.9,0.118652,5.55125e+06,0.510251,33.13,-0.03,0.521667,-0.00500033,0.0413291,0.138261,-0.00418077,0.861739,0.827946,0.474677,0.501469,0.139519,0.235433,0.443687,0.251219,2026-10-10 06:17:16,151,5.8,0.271429,0,0,82.9646,0.537058,0,0.5,0.5,0,0,0,-1,-1,0.0976
Green_YC310_Pro_5B88_261010_061950.csv,1,69,24,13,39967.4,0.119869,5.33675e+06,0.467351,33.11,-0.02,0.518333,-0.00333367,0.0426523,0.161074,0.00132318,0.838926,0.832441,0.458965,0.485756,0.129361,0.236527,0.448963,0.255387,2026-10-10 06:19:50,154,5.8,0.271429,0,0,80.2676,0.503345,0,0.434783,0.565217,0,0,0,-1,-1,0.0990476
Green_YC310_Pro_5B88_261010_062216.csv,1,70,21,19,45017.5,0.14007,5.29101e+06,0.458203,33.14,0.03,0.523333,0.00500033,0.0451038,0.203341,0.00245148,0.796659,0.78484,0.433792,0.460584,0.127828,0.238428,0.401868,0.259652,2026-10-10 06:22:16,146,5.8,0.271429,0,0,70.4698,0.380873,0,0.272727,0.727273,0,0,0,-1,-1,0.103636
Green_YC310_Pro_5B88_261010_062446.csv,1,71,23,13,38513,0.114052,5.23713e+06,0.447426,33.14,0,0.523333,3.33333e-07,0.0496119,0.281066,0.00450806,0.718934,0.760338,0.402495,0.436082,0.127403,0.238517,0.377812,0.260031,2026-10-10 06:24:46,150,5.8,0.271429,0,0,76.9231,0.461539,0,0.217391,0.695652,0.0869565,0,0,-1,-1,0.101
Green_YC310_Pro_5B88_261010_062716.csv,1,72,18,11,44988.5,0.139954,5.23194e+06,0.446388,33.13,-0.01,0.521667,-0.00166633,0.0462301,0.22276,-0.00338181,0.77724,0.746939,0.365074,0.422683,0.128088,0.237847,0.364865,0.25522,2026-10-10 06:27:16,150,5.8,0.271429,0,0,60.7424,0.25928,0,0.2,0.8,0,0,0,-1,-1,0.102222
Green_YC310_Pro_5B88_261010_062946.csv,1,73,19,16,45531.1,0.142124,5.24749e+06,0.449498,33.1,-0.03,0.516667,-0.00500033,0.0485581,0.262899,0.00232803,0.737101,0.744644,0.323489,0.420388,0.133246,0.235182,0.363148,0.24713,2026-10-10 06:29:46,150,5.8,0.271429,0,0,61.4887,0.268609,0,0,1,0,0,0,-1,-1,0.113
Green_YC310_Pro_5B88_261010_063216.csv,1,74,19,15,42381.6,0.129526,5.2452e+06,0.449039,33.06,-0.04,0.51,-0.006667,0.0500112,0.287952,0.00145313,0.712048,0.732948,0.281905,0.408692,0.137698,0.23214,0.352201,0.242576,2026-10-10 06:32:16,150,5.8,0.271429,0,0,62.3632,0.27954,0,0.105263,0.842105,0.0526316,0,0,-1,-1,0.109
Green_YC310_Pro_5B88_261010_063447.csv,1,75,19,11,47403.4,0.149614,5.29219e+06,0.458438,33.04,-0.02,0.506667,-0.00333333,0.0482651,0.257847,-0.00174607,0.742153,0.723033,0.270655,0.398777,0.140786,0.230436,0.343064,0.239908,2026-10-10 06:34:47,151,5.8,0.271429,0,0,63.6161,0.295201,0,0,1,0,0,0,-1,-1,0.108
Green_YC310_Pro_5B88_261010_063717.csv,1,76,19,15,43597,0.134388,5.2222e+06,0.444439,33.01,-0.03,0.501667,-0.00500033,0.0509548,0.304221,0.00268972,0.695779,0.722742,0.259406,0.398486,0.138627,0.229316,0.343639,0.238688,2026-10-10 06:37:17,150,5.8,0.271429,0,0,62.9834,0.287293,0,0,0.947368,0.0526316,0,0,-1,-1,0.115
Green_YC310_Pro_5B88_261010_063947.csv,1,77,17,12,44029.7,0.136119,5.37584e+06,0.475167,33,-0.01,0.5,-0.001667,0.0485089,0.26205,-0.00244588,0.73795,0.730295,0.275875,0.406039,0.117027,0.233351,0.352013,0.239681,2026-10-10 06:39:47,150,5.8,0.271429,0,0,57.8888,0.22361,0,0,1,0,0,0,-1,-1,0.112222
Green_YC310_Pro_5B88_261010_064217.csv,1,78,24,9,25370.7,0.0614828,5.04666e+06,0.409333,32.99,-0.01,0.498333,-0.00166667,0.0469509,0.235188,-0.00155802,0.764812,0.749554,0.292344,0.422509,0.101114,0.236186,0.372054,0.240557,2026-10-10 06:42:17,150,5.8,0.271429,0,0,79.034,0.487925,0,0.2,0.72,0.08,0,0,-1,-1,0.104762
Green_YC310_Pro_5B88_261010_064447.csv,1,79,20,14,40222.2,0.120889,5.28923e+06,0.457845,33,0.01,0.5,0.001667,0.0476039,0.246447,0.000653008,0.753553,0.757449,0.303594,0.430404,0.105742,0.235735,0.380579,0.244618,2026-10-10 06:44:47,150,5.8,0.271429,0,0,68.8863,0.361079,0,0.0526316,0.947368,0,0,0,-1,-1,0.109474
Green_YC310_Pro_5B88_261010_064716.csv,1,80,20,18,43713.3,0.134853,5.51907e+06,0.503815,33.01,0.01,0.501667,0.00166667,0.0473531,0.242122,-0.000250833,0.757878,0.735798,0.314844,0.441654,0.138402,0.229363,0.359421,0.246584,2026-10-10 06:47:16,149,5.8,0.271429,0,0,64.9351,0.311689,0,0.105263,0.894737,0,0,0,-1,-1,0.108571
Green_YC310_Pro_5B88_261010_064949.csv,1,81,19,4,49865.8,0.159463,5.36158e+06,0.472316,33.03,0.02,0.505,0.003333,0.0522247,0.326116,0.00487163,0.673884,0.708611,0.326913,0.453723,0.134739,0.231188,0.332549,0.247869,2026-10-10 06:49:49,153,5.8,0.271429,0,0,61.4887,0.268609,0,0,0.866667,0.133333,0,0,-1,-1,0.109231
Green_YC310_Pro_5B88_261010_065217.csv,1,82,21,10,36587.8,0.106351,5.3542e+06,0.470841,33.07,0.04,0.511667,0.00666667,0.0490396,0.2712,-0.00318511,0.7288,0.640035,0.338981,0.465791,0.142139,0.231727,0.264009,0.245458,2026-10-10 06:52:17,148,5.8,0.271429,0,0,69.3069,0.366336,0,0.15,0.8,0.05,0,0,-1,-1,0.114737
Green_YC310_Pro_5B88_261010_065448.csv,1,83,21,11,59097.9,0.196392,4.73334e+06,0.346668,33.13,0.06,0.521667,0.00999967,0.066448,0.571345,0.0174084,0.428655,0.57394,0.350233,0.477044,0.1562,0.231911,0.197586,0.237751,2026-10-10 06:54:48,151,5.8,0.271429,0,0,72.7483,0.409354,0,0,0.55,0.4,0.05,0,-1,-1,0.128889
Green_YC310_Pro_5B88_261010_065717.csv,1,84,19,17,41416.2,0.125665,4.7486e+06,0.34972,33.18,0.05,0.53,0.008333,0.0501502,0.290348,-0.0162978,0.709652,0.628128,0.33186,0.45867,0.149385,0.235978,0.251186,0.233344,2026-10-10 06:57:17,149,5.8,0.271429,0,0,64.1892,0.302365,0,0,0.95,0.05,0,0,-1,-1,0.116
Green_YC310_Pro_5B88_261010_065947.csv,1,85,19,17,47454.2,0.149817,4.71719e+06,0.343437,33.21,0.03,0.535,0.005,0.0527658,0.335445,0.00261561,0.664555,0.685876,0.30741,0.43422,0.140266,0.23948,0.308236,0.227247,2026-10-10 06:59:47,150,5.8,0.271429,0,0,65.0685,0.313356,0,0,0.9,0.1,0,0,-1,-1,0.117
Green_YC310_Pro_5B88_261010_070215.csv,1,86,19,17,45814.6,0.143258,4.72399e+06,0.344798,33.22,0.01,0.536667,0.00166667,0.0514983,0.313591,-0.00126754,0.686409,0.683422,0.321057,0.447867,0.145317,0.238939,0.305107,0.227375,2026-10-10 07:02:15,148,5.8,0.271429,0,0,64.0449,0.300561,0,0,0.9,0.1,0,0,-1,-1,0.115
Green_YC310_Pro_5B88_261010_070449.csv,1,87,19,16,45204.1,0.140816,4.67617e+06,0.335235,33.22,0,0.536667,-3.33333e-07,0.0507505,0.300699,-0.000747778,0.699301,0.699612,0.349254,0.464058,0.156482,0.236581,0.320705,0.224858,2026-10-10 07:04:49,154,5.8,0.271429,0,0,65.5172,0.318965,0,0.0526316,0.894737,0.0526316,0,0,-1,-1,0.115
Green_YC310_Pro_5B88_261010_070717.csv,1,88,21,14,55828.5,0.183314,5.35738e+06,0.471477,33.18,-0.04,0.53,-0.006667,0.0499486,0.286873,-0.00080189,0.713127,0.673428,0.338508,0.453312,0.168425,0.231957,0.294238,0.227309,2026-10-10 07:07:17,148,5.8,0.271429,0,0,71.8358,0.397948,0,0.142857,0.761905,0.0952381,0,0,-1,-1,0.11625
Green_YC310_Pro_5B88_261010_070948.csv,1,89,21,11,55454.3,0.181817,5.37335e+06,0.474671,33.16,-0.02,0.526667,-0.00333333,0.0560724,0.392455,0.0061238,0.607545,0.658377,0.327762,0.442566,0.181145,0.22822,0.279058,0.22842,2026-10-10 07:09:48,151,5.8,0.271429,0,0,70.1559,0.376949,0,0.0454545,0.727273,0.227273,0,0,-1,-1,0.117647
Green_YC310_Pro_5B88_261010_071217.csv,1,90,18,17,54576,0.178304,5.41815e+06,0.483629,33.12,-0.04,0.52,-0.006667,0.051752,0.317966,-0.00432037,0.682034,0.654458,0.297843,0.438647,0.175097,0.227395,0.275267,0.228589,2026-10-10 07:12:17,149,5.8,0.271429,0,0,60.6061,0.257576,0,0,0.947368,0.0526316,0,0,-1,-1,0.121053
Green_YC310_Pro_5B88_261010_071447.csv,1,91,20,16,51292.5,0.16517,5.58128e+06,0.516256,33.09,-0.03,0.515,-0.005,0.0506305,0.29863,-0.00112147,0.70137,0.684192,0.286544,0.427348,0.173797,0.226093,0.305293,0.227986,2026-10-10 07:14:47,150,5.8,0.271429,0,0,64.6552,0.30819,0,0,0.947368,0.0526316,0,0,-1,-1,0.112632
Green_YC310_Pro_5B88_261010_071719.csv,1,92,19,14,54034.5,0.176138,5.56393e+06,0.512786,33.07,-0.02,0.511667,-0.00333333,0.0508986,0.303251,0.000268063,0.696749,0.704608,0.293865,0.434669,0.172497,0.225317,0.326086,0.228718,2026-10-10 07:17:19,152,5.8,0.271429,0,0,64.0449,0.300561,0,0.0526316,0.894737,0.0526316,0,0,-1,-1,0.111579
Green_YC310_Pro_5B88_261010_071947.csv,1,93,19,9,54046.1,0.176184,5.66449e+06,0.532899,33.04,-0.03,0.506667,-0.00500033,0.0496278,0.281342,-0.00127077,0.718658,0.715706,0.291923,0.432727,0.181262,0.221889,0.337696,0.231233,2026-10-10 07:19:47,148,5.8,0.271429,0,0,62.3632,0.27954,0,0.0555556,0.888889,0.0555556,0,0,-1,-1,0.10625
Green_YC310_Pro_5B88_261010_072217.csv,1,94,19,17,57866.3,0.191465,5.59814e+06,0.519629,33.03,-0.01,0.505,-0.001667,0.0486996,0.265337,-0.000928225,0.734663,0.72666,0.290953,0.431756,0.183825,0.220823,0.34916,0.235193,2026-10-10 07:22:17,150,5.8,0.271429,0,0,64.1892,0.302365,0,0,1,0,0,0,-1,-1,0.111
