Sheet Name,Segment,Index,total_beat_count,Sel_Min,diff,diff_n,mean,mean_n,temp,temp_raw_diff,temp_n,temp_diff,rise_low,rise_low_n,rise_low_diff,rise_low_n_inv,rise_low_n_inv_center,HR_n_center,HR_n_center_lim,diff_n_center,diff_anker,rl_inv_corr,inv_corr,datetime,time_gap_seconds,CGM,CGM_n,SMBG,SMBG_n,HR,HR_n,r20,r40,r60,r80,r100,time_gap_state,time_gap_slot,time_gap_offset_s,rise_low_50
Green_YC310_Pro_5B88_260930_183549.csv,1,1,42,17,25627.6,0.0625102,4.70253e+06,0.340507,32.88,0,0.48,0,0.0452651,0.206122,0,0.793878,0.793878,0.608375,0.608375,0.0625102,0.238558,0.378571,0.378571,2026-09-30 18:35:49,0,6.6,0.328571,7.3,0.378571,88.67,0.608375,0,0.4,0.571429,0.0285714,0,0,-1,-1,0.1
Green_YC310_Pro_5B88_260930_183749.csv,1,2,44,11,27871.8,0.0714872,4.88093e+06,0.376186,32.91,0.03,0.485,0.005,0.0442479,0.188585,-0.00101718,0.811415,0.780159,0.606137,0.606137,0.0674291,0.239095,0.378571,0.378571,2026-09-30 18:37:49,120,7.2,0.371429,0,0,95.5829,0.694786,0,0.472222,0.527778,0,0,0,-1,-1,0.0980645
Green_YC310_Pro_5B88_260930_183949.csv,1,3,34,6,26058,0.064232,4.45249e+06,0.290497,32.94,0.03,0.49,0.005,0.0475101,0.24483,0.00326225,0.75517,0.735183,0.524469,0.561161,0.0819585,0.237604,0.378571,0.378571,2026-09-30 18:39:49,120,7.6,0.4,0,0,74.1279,0.426599,0,0.40625,0.46875,0.09375,0.03125,0,-1,-1,0.099
Green_YC310_Pro_5B88_260930_184150.csv,1,4,39,10,41970.6,0.127883,4.70208e+06,0.340415,32.81,-0.13,0.468333,-0.0216667,0.0530908,0.341048,0.00558069,0.658952,0.722609,0.500362,0.548586,0.0992211,0.227127,0.378571,0.378571,2026-09-30 18:41:50,121,7.1,0.364286,0,0,83.9914,0.549893,0,0.16,0.68,0.12,0.04,0,-1,-1,0.120952
Green_YC310_Pro_5B88_260930_184353.csv,1,5,40,11,34438.2,0.0977528,4.68524e+06,0.337048,32.85,0.04,0.475,0.006667,0.0497003,0.282591,-0.00339051,0.717409,0.710034,0.524596,0.57282,0.105548,0.227893,0.378571,0.378571,2026-09-30 18:43:53,123,7.2,0.371429,0,0,83.8574,0.548218,0,0.323529,0.5,0.176471,0,0,-1,-1,0.1
Green_YC310_Pro_5B88_260930_184551.csv,1,6,38,17,30803.4,0.0832136,5.29835e+06,0.459671,32.9,0.05,0.483333,0.00833333,0.0475931,0.24626,-0.0021072,0.75374,0.760046,0.54357,0.591794,0.100276,0.231634,0.378571,0.378571,2026-09-30 18:45:51,118,7.6,0.4,0,0,79.9439,0.499299,0,0.189189,0.783784,0.027027,0,0,-1,-1,0.108
Green_YC310_Pro_5B88_260930_184750.csv,1,7,42,12,35028.7,0.100115,5.7827e+06,0.556541,32.93,0.03,0.488333,0.00500033,0.0443886,0.19101,-0.00320451,0.80899,0.773514,0.579161,0.605262,0.0950039,0.234324,0.378571,0.378571,2026-09-30 18:47:50,119,7.4,0.385714,0,0,88.5453,0.606816,0.0512821,0.307692,0.589744,0.0512821,0,0,-1,-1,0.103529
Green_YC310_Pro_5B88_260930_185150.csv,1,8,42,15,35420.7,0.101683,6.01179e+06,0.602357,33.07,0.14,0.511667,0.0233337,0.0477227,0.248494,0.00333408,0.751506,0.774034,0.606892,0.605781,0.105162,0.239535,0.378571,0.378571,2026-09-30 18:51:50,240,7.3,0.378571,0,0,88.2971,0.603714,0,0.34375,0.59375,0.03125,0.03125,0,-1,-1,0.105926
Green_YC310_Pro_5B88_260930_185349.csv,1,9,41,20,38422,0.113688,6.32686e+06,0.665372,33.16,0.09,0.526667,0.0149997,0.0458304,0.215868,-0.00189234,0.784132,0.750662,0.598177,0.597067,0.120181,0.241093,0.353478,0.353478,2026-09-30 18:53:49,119,7.3,0.378571,0,0,89.0659,0.613324,0,0.368421,0.605263,0.0263158,0,0,-1,-1,0.114839
Green_YC310_Pro_5B88_260930_185550.csv,1,10,40,9,46292.9,0.145172,6.24964e+06,0.649927,33.22,0.06,0.536667,0.00999967,0.0494851,0.278882,0.00365474,0.721118,0.716348,0.577495,0.576385,0.150985,0.237741,0.3216,0.3216,2026-09-30 18:55:50,121,7.2,0.371429,0,0,86.3309,0.579136,0,0.354839,0.483871,0.0967742,0.0645161,0,-1,-1,0.0746667
Green_YC310_Pro_5B88_260930_185754.csv,1,11,38,9,58524,0.194096,6.34901e+06,0.669802,33.33,0.11,0.555,0.018333,0.05397,0.356206,0.00448487,0.643794,0.696879,0.564018,0.562908,0.164831,0.240598,0.297293,0.297293,2026-09-30 18:57:54,124,7.2,0.371429,0,0,83.3333,0.541666,0,0.153846,0.692308,0.115385,0.0384615,0,-1,-1,0.12
Green_YC310_Pro_5B88_260930_185951.csv,1,12,39,13,47353.3,0.149413,6.49125e+06,0.698249,33.33,0,0.555,-3.33067e-16,0.0541356,0.359062,0.00016561,0.640938,0.631453,0.550542,0.549431,0.170291,0.239445,0.248872,0.248872,2026-09-30 18:59:51,117,7.4,0.385714,0,0,83.871,0.548387,0,0.235294,0.558824,0.117647,0.0882353,0,-1,-1,0.104444
Green_YC310_Pro_5B88_260930_190152.csv,1,13,40,6,57060.9,0.188244,6.7444e+06,0.74888,33.36,0.03,0.56,0.005,0.0559517,0.390374,0.00181608,0.609626,0.670783,0.559699,0.558588,0.167423,0.241627,0.276036,0.276036,2026-09-30 19:01:52,121,7,0.357143,0,0,84.9257,0.561571,0,0.151515,0.636364,0.151515,0.0606061,0,-1,-1,0.115172
Green_YC310_Pro_5B88_260930_190349.csv,1,14,40,8,46453.5,0.145814,7.02431e+06,0.804862,33.34,-0.02,0.556667,-0.00333333,0.0481092,0.255159,-0.00784246,0.744841,0.710114,0.568659,0.567549,0.164611,0.24117,0.306774,0.306774,2026-09-30 19:03:49,117,6.6,0.328571,0,0,85.531,0.569138,0,0.257143,0.6,0.142857,0,0,-1,-1,0.117931
Green_YC310_Pro_5B88_260930_190549.csv,1,15,40,19,45244.7,0.140979,7.65531e+06,0.931061,33.37,0.03,0.561667,0.00499967,0.0463093,0.224126,-0.00179992,0.775874,0.784167,0.601493,0.600382,0.168692,0.241885,0.363696,0.363696,2026-09-30 19:05:49,120,6.2,0.3,0,0,86.0215,0.575269,0,0.307692,0.692308,0,0,0,-1,-1,0.103889
Green_YC310_Pro_5B88_260930_190749.csv,1,16,43,7,60121.8,0.200487,7.64792e+06,0.929583,33.44,0.07,0.573333,0.0116663,0.0430665,0.168215,-0.0032428,0.831785,0.775471,0.609433,0.608323,0.154023,0.248661,0.355076,0.355076,2026-09-30 19:07:49,120,5.6,0.257143,0,0,92.8058,0.660073,0.0285714,0.485714,0.485714,0,0,0,-1,-1,0.1
Green_YC310_Pro_5B88_260930_190949.csv,1,17,42,24,28534.6,0.0741384,4.88655e+06,0.377309,33.45,0.01,0.575,0.001667,0.0471568,0.238739,0.00409034,0.761261,0.766775,0.617374,0.616263,0.13353,0.253514,0.349935,0.349935,2026-09-30 19:09:49,120,5.6,0.257143,0,0,89.4251,0.617814,0,0.302326,0.627907,0.0697674,0,0,-1,-1,0.105806
Green_YC310_Pro_5B88_260930_191149.csv,1,18,37,20,32669.6,0.0906784,4.89294e+06,0.378588,33.51,0.06,0.585,0.01,0.0502879,0.292722,0.00313107,0.707278,0.713558,0.574234,0.573124,0.125964,0.258264,0.299195,0.299195,2026-09-30 19:11:49,120,5.6,0.257143,0,0,77.2981,0.466226,0.0277778,0.222222,0.638889,0.0833333,0.0277778,0,-1,-1,0.105806
Green_YC310_Pro_5B88_260930_191350.csv,1,19,39,14,54447.4,0.17779,5.33891e+06,0.467782,33.65,0.14,0.608333,0.0233333,0.0523261,0.327864,0.00203823,0.672136,0.701405,0.568789,0.567679,0.139643,0.262733,0.278662,0.278662,2026-09-30 19:13:50,121,5.5,0.25,0,0,82.4524,0.530655,0,0.205882,0.617647,0.147059,0.0294118,0,-1,-1,0.113333
Green_YC310_Pro_5B88_260930_191550.csv,1,20,40,9,53214.3,0.172857,5.31852e+06,0.463704,33.67,0.02,0.611667,0.00333367,0.0496358,0.28148,-0.00269027,0.71852,0.694843,0.563344,0.562234,0.153322,0.260895,0.270514,0.270514,2026-09-30 19:15:50,120,5.7,0.264286,0,0,83.1601,0.539501,0,0.354839,0.483871,0.0645161,0.0967742,0,-1,-1,0.116522
Green_YC310_Pro_5B88_260930_191750.csv,1,21,42,10,42213.5,0.128854,5.68307e+06,0.536615,33.65,-0.02,0.608333,-0.00333367,0.0524386,0.329803,0.00280279,0.670197,0.702498,0.550432,0.549321,0.141531,0.262334,0.270033,0.270033,2026-09-30 19:17:50,120,5.8,0.271429,0,0,87.6827,0.596034,0.0588235,0.235294,0.5,0.147059,0.0588235,0,-1,-1,0.121429
Green_YC310_Pro_5B88_260930_191949.csv,1,22,36,12,45604.5,0.142418,5.85552e+06,0.571103,33.76,0.11,0.626667,0.0183337,0.0477475,0.248922,-0.00469111,0.751078,0.730568,0.52209,0.52098,0.135003,0.269493,0.273099,0.273099,2026-09-30 19:19:49,119,5.6,0.257143,0,0,79.3534,0.491917,0,0.222222,0.722222,0.0555556,0,0,-1,-1,0.117692
Green_YC310_Pro_5B88_260930_192150.csv,1,23,38,20,42173.4,0.128694,6.30342e+06,0.660685,33.8,0.04,0.633333,0.00666633,0.0478148,0.250083,6.73016e-05,0.749917,0.763695,0.466417,0.465306,0.133738,0.271862,0.273099,0.273099,2026-09-30 19:21:50,121,5.6,0.257143,0,0,80.6794,0.508493,0,0.27027,0.648649,0.0810811,0,0,-1,-1,0.101379
Green_YC310_Pro_5B88_260930_192354.csv,1,24,30,34,41264.8,0.125059,4.2609e+06,0.25218,33.73,-0.07,0.621667,-0.0116663,0.0446856,0.196131,-0.00312923,0.803869,0.751067,0.39884,0.452678,0.162957,0.262014,0.273099,0.273099,2026-09-30 19:23:54,124,5.6,0.257143,0,0,75.6939,0.446174,0,0.416667,0.541667,0.0416667,0,0,-1,-1,0.103
Green_YC310_Pro_5B88_260930_192550.csv,1,25,29,3,67518.3,0.230073,4.78627e+06,0.357254,33.61,-0.12,0.601667,-0.0200003,0.0538064,0.353387,0.00912082,0.646613,0.744987,0.427566,0.481404,0.183054,0.251464,0.273099,0.273099,2026-09-30 19:25:50,116,5.9,0.278571,0,0,63.135,0.289187,0,0.25,0.45,0.2,0.1,0,-1,-1,0.0836364
Green_YC310_Pro_5B88_260930_192749.csv,1,26,33,2,46752.7,0.147011,4.31721e+06,0.263442,33.43,-0.18,0.571667,-0.0300003,0.0505338,0.296962,-0.00327259,0.703038,0.784479,0.456291,0.510129,0.189705,0.240601,0.273099,0.273099,2026-09-30 19:27:49,119,5.9,0.278571,0,0,79.4543,0.493179,0.0416667,0.166667,0.583333,0.208333,0,0,-1,-1,0.217143
Green_YC310_Pro_5B88_260930_192950.csv,1,27,42,1,47355.1,0.149421,5.54104e+06,0.508208,33.37,-0.06,0.561667,-0.0100003,0.0378139,0.077654,-0.0127199,0.922346,0.730362,0.525401,0.579239,0.192031,0.236957,0.273099,0.273099,2026-09-30 19:29:50,121,5.9,0.278571,0,0,89.8716,0.623395,0.0588235,0.617647,0.294118,0.0294118,0,0,-1,-1,0.0878261
Green_YC310_Pro_5B88_260930_193150.csv,1,28,41,7,79914.9,0.27966,6.48236e+06,0.696472,33.32,-0.05,0.553333,-0.00833367,0.0503716,0.294166,0.0125577,0.705834,0.676245,0.59451,0.648348,0.244105,0.223333,0.235877,0.235877,2026-09-30 19:31:50,120,5.9,0.278571,0,0,86.9873,0.587341,0,0.433333,0.433333,0.0666667,0.0666667,0,-1,-1,0.0831579
Green_YC310_Pro_5B88_260930_193349.csv,1,29,32,2,85808.4,0.303234,5.92377e+06,0.584753,33.15,-0.17,0.525,-0.028333,0.0663617,0.569857,0.0159901,0.430143,0.621895,0.564876,0.618714,0.214133,0.220728,0.274008,0.274008,2026-09-30 19:33:49,119,5.8,0.271429,0,0,68.5225,0.356531,0,0.111111,0.388889,0.222222,0.277778,0,-1,-1,0.122857
Green_YC310_Pro_5B88_260930_193550.csv,1,30,39,16,33765.1,0.0950604,5.73855e+06,0.547709,32.99,-0.16,0.498333,-0.0266667,0.0472707,0.240702,-0.019091,0.759298,0.667122,0.5458,0.599638,0.149699,0.225927,0.332424,0.332424,2026-09-30 19:35:50,121,5.6,0.257143,0,0,84.6599,0.558249,0.027027,0.324324,0.567568,0.027027,0.0540541,0,-1,-1,0.10129
Green_YC310_Pro_5B88_260930_193749.csv,1,31,38,7,36360.5,0.105442,5.56277e+06,0.512554,32.97,-0.02,0.495,-0.003333,0.0495646,0.280252,0.0022939,0.719748,0.739523,0.532302,0.58614,0.100251,0.235317,0.387549,0.387549,2026-09-30 19:37:49,119,5.5,0.25,0,0,80.5085,0.506356,0,0.153846,0.769231,0.0769231,0,0,-1,-1,0.114783
