Sheet Name,Segment,Index,total_beat_count,Sel_Min,diff,diff_n,mean,mean_n,temp,temp_raw_diff,temp_n,temp_diff,rise_low,rise_low_n,rise_low_diff,rise_low_n_inv,rise_low_n_inv_center,HR_n_center,HR_n_center_lim,diff_n_center,diff_anker,rl_inv_corr,inv_corr,datetime,time_gap_seconds,CGM,CGM_n,SMBG,SMBG_n,HR,HR_n,r20,r40,r60,r80,r100,time_gap_state,time_gap_slot,time_gap_offset_s,rise_low_50
Green_YC310_Pro_5B88_261010_212440.csv,5,1,23,3,16786,0.027144,4.75674e+06,0.351349,33,0,0.5,0,0.0342602,0.0163823,0,0.983618,0.983618,0.486843,0.486843,0.027144,0.252332,0.307143,0.307143,2026-10-10 21:24:40,0,5.4,0.242857,6.3,0.307143,78.9474,0.486843,0.0666667,0.733333,0.2,0,0,1,0,0,0.0786667
Green_YC310_Pro_5B88_261010_212716.csv,5,2,30,22,18698.6,0.0347945,4.87381e+06,0.374761,33.07,0.07,0.511667,0.0116667,0.0427227,0.162288,0.00846252,0.837712,0.874818,0.674103,0.674103,0.0381782,0.25368,0.307143,0.273575,2026-10-10 21:27:16,156,5.3,0.235714,0,0,99.1189,0.738986,0,0.451613,0.548387,0,0,1,1,0,0.0922581
Green_YC310_Pro_5B88_261010_212941.csv,5,3,29,20,23149.1,0.0525962,4.84131e+06,0.368263,33.08,0.01,0.513333,0.00166633,0.0425768,0.159772,-0.000145931,0.840228,0.827502,0.737709,0.737709,0.0485615,0.252013,0.307143,0.242283,2026-10-10 21:29:41,145,5.2,0.228571,0,0,98.5277,0.731596,0,0.5,0.5,0,0,1,2,0,0.0993103
Green_YC310_Pro_5B88_261010_213210.csv,5,4,31,16,24573.4,0.0582937,4.79509e+06,0.359018,33.09,0.01,0.515,0.001667,0.0453833,0.208161,0.00280654,0.791839,0.813126,0.728231,0.728231,0.0537431,0.251444,0.307143,0.200511,2026-10-10 21:32:10,149,5.7,0.264286,0,0,99.8926,0.748657,0,0.451613,0.548387,0,0,1,3,0,0.0935714
Green_YC310_Pro_5B88_261010_213440.csv,5,5,28,15,23593.5,0.0543741,4.87151e+06,0.374301,33.15,0.06,0.525,0.01,0.0447058,0.196479,-0.000677493,0.803521,0.807312,0.704439,0.722417,0.0571241,0.253883,0.307143,0.169411,2026-10-10 21:34:40,150,5.6,0.257143,0,0,94.4882,0.681103,0,0.464286,0.535714,0,0,1,4,0,0.0966667
Green_YC310_Pro_5B88_261010_213712.csv,5,6,28,24,24248.7,0.0569949,4.66975e+06,0.333951,33.18,0.03,0.53,0.005,0.0435885,0.177215,-0.00111732,0.822785,0.801583,0.686135,0.716687,0.0587044,0.255126,0.307143,0.166819,2026-10-10 21:37:12,152,5.6,0.257143,0,0,92.8177,0.660221,0,0.448276,0.551724,0,0,1,5,0,0.097931
Green_YC310_Pro_5B88_261010_214008.csv,5,7,29,17,26186.1,0.0647443,4.78079e+06,0.356157,33.21,0.03,0.535,0.005,0.044564,0.194034,0.000975476,0.805966,0.795853,0.66238,0.710958,0.069624,0.254397,0.307143,0.15623,2026-10-10 21:40:08,176,5.7,0.264286,0,0,95.4995,0.693744,0,0.433333,0.566667,0,0,1,6,30,0.0986667
Green_YC310_Pro_5B88_261010_214239.csv,5,8,28,17,31783.2,0.0871329,4.69947e+06,0.339894,33.24,0.03,0.54,0.005,0.0467125,0.231078,0.00214851,0.768922,0.793283,0.633176,0.708388,0.0742388,0.254999,0.307143,0.154408,2026-10-10 21:42:39,151,5.7,0.264286,0,0,91.5033,0.643791,0,0.413793,0.586207,0,0,1,7,30,0.0971429
Green_YC310_Pro_5B88_261010_214508.csv,5,9,26,16,31118,0.0844718,4.68214e+06,0.336428,33.28,0.04,0.546667,0.00666667,0.0440358,0.184927,-0.00267674,0.815073,0.793459,0.605733,0.680945,0.0788536,0.256126,0.307143,0.151989,2026-10-10 21:45:08,149,5.6,0.257143,0,0,85.8086,0.572607,0,0.346154,0.653846,0,0,1,8,30,0.102222
Green_YC310_Pro_5B88_261010_214738.csv,5,10,27,24,27643.6,0.0705743,4.65408e+06,0.330815,33.36,0.08,0.56,0.013333,0.0463735,0.225234,0.00233775,0.774766,0.805152,0.588691,0.663903,0.0840036,0.259243,0.317382,0.14064,2026-10-10 21:47:38,150,5.4,0.242857,0,0,88.9133,0.611416,0,0.5,0.5,0,0,1,9,30,0.0911111
Green_YC310_Pro_5B88_261010_215010.csv,5,11,25,22,29972.6,0.0798902,4.66639e+06,0.333277,33.41,0.05,0.568333,0.00833333,0.0416618,0.143997,-0.00471168,0.856003,0.823027,0.57805,0.653262,0.0891537,0.260783,0.333677,0.138776,2026-10-10 21:50:10,152,5.2,0.228571,0,0,84.7458,0.559323,0,0.5,0.5,0,0,1,10,30,0.0946154
Green_YC310_Pro_5B88_261010_215242.csv,5,12,25,16,36933.3,0.107733,4.56812e+06,0.313624,33.44,0.03,0.573333,0.00500033,0.0432279,0.170998,0.00156608,0.829002,0.838312,0.563413,0.638624,0.0966262,0.260781,0.347391,0.140334,2026-10-10 21:52:42,152,5.2,0.228571,0,0,85.2273,0.565341,0,0.538462,0.461538,0,0,1,11,30,0.0975
Green_YC310_Pro_5B88_261010_215509.csv,5,13,26,23,33248,0.0929919,4.5327e+06,0.306541,33.44,0,0.573333,3.33333e-07,0.043714,0.179379,0.000486092,0.820621,0.831328,0.639748,0.71496,0.0986327,0.260357,0.339026,0.150882,2026-10-10 21:55:09,147,5.2,0.228571,0,0,85.2459,0.565574,0,0.518519,0.481481,0,0,2,12,30,0.0933333
Green_YC310_Pro_5B88_261010_215738.csv,5,14,27,25,35203.5,0.100814,4.50612e+06,0.301223,33.45,0.01,0.575,0.001667,0.042877,0.164948,-0.000837039,0.835052,0.812258,0.63859,0.713802,0.0951357,0.261621,0.318679,0.150963,2026-10-10 21:57:38,149,5.1,0.221429,0,0,90.4018,0.630022,0,0.518519,0.481481,0,0,2,13,30,0.0930769
Green_YC310_Pro_5B88_261010_220010.csv,5,15,30,26,31480.7,0.0859228,4.46052e+06,0.292104,33.43,-0.02,0.571667,-0.00333333,0.0473281,0.241692,0.00445113,0.758308,0.797937,0.635682,0.710894,0.0982787,0.259907,0.303355,0.147014,2026-10-10 22:00:10,152,5.1,0.221429,0,0,97.6139,0.720174,0,0.548387,0.451613,0,0,2,14,30,0.0896774
Green_YC310_Pro_5B88_261010_220239.csv,5,16,27,25,31959.6,0.0878384,4.50187e+06,0.300374,33.42,-0.01,0.57,-0.001667,0.0439781,0.183932,-0.00335002,0.816068,0.800451,0.632774,0.707986,0.108099,0.257307,0.305047,0.143151,2026-10-10 22:02:39,149,5.1,0.221429,0,0,89.6018,0.620022,0,0.5,0.5,0,0,2,15,30,0.0907143
Green_YC310_Pro_5B88_261010_220510.csv,5,17,25,17,42569.1,0.130276,5.39124e+06,0.478247,33.41,-0.01,0.568333,-0.00166667,0.0433453,0.173022,-0.000632825,0.826978,0.827046,0.605682,0.680894,0.119453,0.254384,0.330978,0.143651,2026-10-10 22:05:10,151,5.1,0.221429,0,0,84.6501,0.558126,0,0.538462,0.461538,0,0,2,16,30,0.0915385
Green_YC310_Pro_5B88_261010_220740.csv,5,18,25,24,39996,0.119984,5.41982e+06,0.483963,33.38,-0.03,0.563333,-0.00499967,0.0427006,0.161907,-0.000644708,0.838093,0.832427,0.53305,0.608262,0.12468,0.251704,0.335954,0.144651,2026-10-10 22:07:40,150,5.1,0.221429,0,0,83.9866,0.549832,0,0.461538,0.538462,0,0,2,17,30,0.0961538
Green_YC310_Pro_5B88_261010_221011.csv,5,19,24,19,42118.8,0.128475,5.36255e+06,0.47251,33.34,-0.04,0.556667,-0.00666633,0.0430458,0.167859,0.000345222,0.832141,0.837278,0.526701,0.601913,0.123483,0.249855,0.34069,0.146485,2026-10-10 22:10:11,151,5.1,0.221429,0,0,79.2952,0.49119,0,0.48,0.52,0,0,2,18,30,0.0936
Green_YC310_Pro_5B88_261010_221243.csv,5,20,25,19,39250,0.117,5.42282e+06,0.484564,33.3,-0.04,0.55,-0.006667,0.0421992,0.153262,-0.000846611,0.846738,0.840003,0.520352,0.595564,0.125845,0.247254,0.343552,0.148651,2026-10-10 22:12:43,152,5.1,0.221429,0,0,81.5217,0.519021,0.0384615,0.5,0.461538,0,0,2,19,30,0.0952
Green_YC310_Pro_5B88_261010_221509.csv,5,21,26,21,46540.6,0.146163,5.30425e+06,0.46085,33.25,-0.05,0.541667,-0.00833333,0.0429152,0.165606,0.000715975,0.834394,0.844881,0.521814,0.597026,0.132059,0.243315,0.348853,0.153445,2026-10-10 22:15:09,146,5.1,0.221429,0,0,83.9612,0.549515,0,0.592593,0.407407,0,0,2,20,30,0.0903704
Green_YC310_Pro_5B88_261010_221741.csv,5,22,24,23,46779.5,0.147118,5.30931e+06,0.461862,33.21,-0.04,0.535,-0.006667,0.041198,0.136,-0.00171719,0.864,0.853059,0.521254,0.596466,0.140172,0.239499,0.357642,0.160539,2026-10-10 22:17:41,152,5.1,0.221429,0,0,79.646,0.495575,0,0.44,0.56,0,0,2,21,30,0.0936
Green_YC310_Pro_5B88_261010_222012.csv,5,23,25,24,45335.1,0.14134,5.34123e+06,0.468247,33.18,-0.03,0.53,-0.005,0.0420191,0.150156,0.000821071,0.849844,0.856166,0.518672,0.593884,0.145473,0.236804,0.361465,0.166822,2026-10-10 22:20:12,151,5.1,0.221429,0,0,82.3271,0.529089,0,0.538462,0.461538,0,0,2,22,30,0.0915385
Green_YC310_Pro_5B88_261010_222240.csv,5,24,25,24,48023.6,0.152094,5.30184e+06,0.460368,33.16,-0.02,0.526667,-0.00333333,0.0413735,0.139026,-0.000645617,0.860974,0.836841,0.53481,0.610022,0.148426,0.235129,0.342893,0.17678,2026-10-10 22:22:40,148,5.2,0.228571,0,0,82.5083,0.531354,0,0.423077,0.576923,0,0,2,23,30,0.0915385
Green_YC310_Pro_5B88_261010_222510.csv,5,25,25,24,47043.9,0.148175,5.29336e+06,0.458671,33.14,-0.02,0.523333,-0.00333367,0.0428221,0.164001,0.00144858,0.835999,0.799705,0.511668,0.58688,0.150767,0.233584,0.306538,0.180586,2026-10-10 22:25:10,150,5.2,0.228571,0,0,83.5189,0.543986,0,0.692308,0.307692,0,0,2,24,30,0.0907692
Green_YC310_Pro_5B88_261010_222741.csv,5,26,23,19,48655.7,0.154623,5.33557e+06,0.467115,33.14,0,0.523333,3.33333e-07,0.0484806,0.261563,0.00565853,0.738437,0.792736,0.505262,0.580474,0.142817,0.235262,0.300257,0.179072,2026-10-10 22:27:41,151,5.2,0.228571,0,0,76.4967,0.456209,0,0.375,0.625,0,0,2,25,30,0.0966667
Green_YC310_Pro_5B88_261010_223009.csv,5,27,26,24,40403.9,0.121615,5.37054e+06,0.474108,33.13,-0.01,0.521667,-0.00166633,0.0462168,0.222531,-0.00226381,0.777469,0.785767,0.515591,0.590803,0.125653,0.238361,0.293952,0.158404,2026-10-10 22:30:09,148,5.2,0.228571,0,0,85.06,0.56325,0,0.444444,0.555556,0,0,2,26,30,0.0940741
Green_YC310_Pro_5B88_261010_223239.csv,5,28,26,18,35179.9,0.10072,5.46383e+06,0.492766,33.11,-0.02,0.518333,-0.00333367,0.0429904,0.166903,-0.00322641,0.833097,0.803034,0.531641,0.606853,0.106857,0.241279,0.311925,0.140368,2026-10-10 22:32:39,150,5.2,0.228571,0,0,85.9978,0.574972,0,0.62963,0.37037,0,0,2,27,30,0.0923077
Green_YC310_Pro_5B88_261010_223512.csv,5,29,25,21,34558.9,0.0982357,5.37676e+06,0.475352,33.09,-0.02,0.515,-0.003333,0.0454762,0.209762,0.00248579,0.790238,0.813612,0.547691,0.617431,0.11488,0.238534,0.323244,0.129417,2026-10-10 22:35:12,153,5.2,0.228571,0,0,84.4595,0.555744,0,0.538462,0.461538,0,0,2,28,30,0.09
Green_YC310_Pro_5B88_261010_223740.csv,5,30,24,23,44886.9,0.139548,5.31956e+06,0.463911,33.05,-0.04,0.508333,-0.00666667,0.0442793,0.189126,-0.0011969,0.810874,0.817503,0.541021,0.610761,0.122911,0.234736,0.328026,0.140519,2026-10-10 22:37:40,148,5.3,0.235714,0,0,81.6327,0.520409,0,0.28,0.72,0,0,2,29,30,0.0992
Green_YC310_Pro_5B88_261010_224013.csv,5,31,25,23,38578.2,0.114313,5.34703e+06,0.469405,33.02,-0.03,0.503333,-0.00499967,0.0423135,0.155233,-0.0019658,0.844767,0.809982,0.534351,0.604092,0.122102,0.233331,0.32147,0.152497,2026-10-10 22:40:13,153,5.3,0.235714,0,0,82.0569,0.525711,0.0384615,0.5,0.461538,0,0,2,30,30,0.092
Green_YC310_Pro_5B88_261010_224240.csv,5,32,25,13,40058.6,0.120235,5.35486e+06,0.470972,33,-0.02,0.5,-0.003333,0.0449019,0.19986,0.0025884,0.80014,0.802462,0.552935,0.622675,0.109658,0.234908,0.314919,0.161346,2026-10-10 22:42:40,147,5.3,0.235714,0,0,84.5547,0.556934,0,0.423077,0.576923,0,0,2,31,30,0.0930769
Green_YC310_Pro_5B88_261010_224509.csv,5,33,26,24,30962.2,0.083849,5.29986e+06,0.459972,32.96,-0.04,0.493333,-0.00666667,0.0472209,0.239843,0.00231901,0.760157,0.806477,0.546343,0.616084,0.102495,0.234318,0.320026,0.161888,2026-10-10 22:45:09,149,5.3,0.235714,0,0,86.0927,0.576159,0,0.444444,0.555556,0,0,2,32,30,0.0940741
Green_YC310_Pro_5B88_261010_224738.csv,5,34,24,18,34212.9,0.0968517,5.18259e+06,0.436518,32.92,-0.04,0.486667,-0.00666633,0.0448632,0.199193,-0.00235771,0.800807,0.810491,0.539752,0.609492,0.1034,0.232025,0.325243,0.163046,2026-10-10 22:47:38,149,5.3,0.235714,0,0,79.4702,0.493378,0,0.36,0.64,0,0,2,33,30,0.0944
Green_YC310_Pro_5B88_261010_225010.csv,5,35,24,23,40737.6,0.12295,5.24088e+06,0.448177,32.88,-0.04,0.48,-0.006667,0.0413821,0.139174,-0.00348113,0.860826,0.838531,0.509229,0.578969,0.109487,0.228638,0.35458,0.164535,2026-10-10 22:50:10,152,5.3,0.235714,0,0,80.2676,0.503345,0,0.4,0.6,0,0,2,34,30,0.096
Green_YC310_Pro_5B88_261010_225238.csv,5,36,23,19,35528,0.102112,5.35446e+06,0.470892,32.84,-0.04,0.473333,-0.00666667,0.0423419,0.155723,0.000959809,0.844277,0.851959,0.500266,0.570007,0.11924,0.224476,0.369389,0.182977,2026-10-10 22:52:38,148,5.1,0.221429,0,0,78.7671,0.484589,0,0.583333,0.416667,0,0,2,35,30,0.0958333
Green_YC310_Pro_5B88_261010_225510.csv,5,37,25,4,47446.8,0.149787,5.27838e+06,0.455675,32.79,-0.05,0.465,-0.008333,0.0415197,0.141546,-0.000822221,0.858454,0.843836,0.485595,0.561884,0.126247,0.220369,0.362782,0.207275,2026-10-10 22:55:10,152,5.1,0.221429,0,0,80.5585,0.506981,0,0.478261,0.478261,0.0434783,0,2,36,30,0.0882353
Green_YC310_Pro_5B88_261010_225740.csv,5,38,23,19,38842.6,0.11537,5.37424e+06,0.474847,32.75,-0.04,0.458333,-0.00666667,0.0440888,0.185842,0.00256914,0.814158,0.858728,0.465214,0.541503,0.126842,0.218142,0.379248,0.22754,2026-10-10 22:57:40,150,5.1,0.221429,0,0,73.8758,0.423447,0,0.416667,0.583333,0,0,2,37,30,0.101667
Green_YC310_Pro_5B88_261010_230011.csv,5,39,29,13,26834.6,0.0673385,5.17933e+06,0.435866,32.65,-0.1,0.441667,-0.0166663,0.0419223,0.148488,-0.00216652,0.851512,0.903571,0.43737,0.513659,0.11537,0.215309,0.426076,0.240902,2026-10-10 23:00:11,151,5.3,0.235714,0,0,92.2587,0.653234,0,0.615385,0.384615,0,0,2,38,30,0.0816
Green_YC310_Pro_5B88_261010_230238.csv,5,40,16,2,35957.8,0.103831,4.45317e+06,0.290634,32.59,-0.06,0.431667,-0.0100003,0.0495871,0.28064,0.00766483,0.71936,0.99361,0.423447,0.499737,0.11537,0.212156,0.518222,0.250569,2026-10-10 23:02:38,147,5.3,0.235714,0,0,62.9096,0.28637,0,0.416667,0.416667,0,0.166667,2,39,30,0.088
Green_YC310_Pro_5B88_261010_230509.csv,5,41,25,4,16298.3,0.0251931,4.40832e+06,0.281664,32.45,-0.14,0.408333,-0.0233337,0.0442068,0.187876,-0.00538026,0.812124,0.906772,0.567243,0.643532,0.0932735,0.209465,0.434078,0.263569,2026-10-10 23:05:09,151,5.3,0.235714,0,0,81.5217,0.519021,0,0.55,0.45,0,0,2,40,30,0.0855556
Green_YC310_Pro_5B88_261010_230738.csv,5,42,22,6,22270.1,0.0490805,4.23646e+06,0.247291,32.25,-0.2,0.375,-0.033333,0.0540491,0.357571,0.00984229,0.642429,0.806897,0.460247,0.543657,0.071177,0.203622,0.337774,0.281569,2026-10-10 23:07:38,149,5.3,0.235714,0,0,78.2918,0.478647,0,0.222222,0.555556,0.166667,0.0555556,2,41,30,0.0966667
Green_YC310_Pro_5B88_261010_231008.csv,5,43,25,1,21187.1,0.0447486,4.34141e+06,0.268282,32.08,-0.17,0.346667,-0.0283333,0.0464634,0.226782,-0.00758575,0.773218,0.773832,0.503457,0.586867,0.0567407,0.197737,0.308871,0.303902,2026-10-10 23:10:08,150,5.3,0.235714,0,0,83.3333,0.541666,0,0.526316,0.368421,0.0526316,0.0526316,2,42,30,0.08625
Green_YC310_Pro_5B88_261010_231239.csv,5,44,27,6,28015.2,0.072061,5.39402e+06,0.478804,31.99,-0.09,0.331667,-0.0150003,0.044289,0.189294,-0.00217437,0.810706,0.820612,0.553076,0.633647,0.0751275,0.189125,0.359854,0.272045,2026-10-10 23:12:39,151,5.3,0.235714,0,0,87.1905,0.589881,0,0.428571,0.52381,0.047619,0,2,43,30,0.101111
Green_YC310_Pro_5B88_261010_231508.csv,5,45,27,6,36060.2,0.104241,5.56362e+06,0.512725,32.08,0.09,0.346667,0.0149997,0.0453348,0.207325,0.00104582,0.792675,0.759014,0.579248,0.659819,0.103867,0.187785,0.301415,0.235188,2026-10-10 23:15:08,149,5.3,0.235714,0,0,90.2004,0.627505,0.0454545,0.454545,0.409091,0.0909091,0,2,44,30,0.0836364
Green_YC310_Pro_5B88_261010_231738.csv,5,46,25,6,43824.7,0.135299,5.56544e+06,0.513088,32.22,0.14,0.37,0.023333,0.0522376,0.326338,0.00690279,0.673662,0.743004,0.605419,0.68599,0.10766,0.194341,0.287344,0.220929,2026-10-10 23:17:38,150,5.3,0.235714,0,0,85.3242,0.566553,0,0.3,0.5,0.15,0.05,2,45,30,0.141818
Green_YC310_Pro_5B88_261010_232009.csv,5,47,26,8,38809.5,0.115238,5.21221e+06,0.442443,32.32,0.1,0.386667,0.0166667,0.0490093,0.270677,-0.00322832,0.729323,0.726993,0.580708,0.66998,0.111454,0.198795,0.27244,0.193218,2026-10-10 23:20:09,151,5.3,0.235714,0,0,86.6667,0.583334,0,0.333333,0.555556,0.111111,0,2,46,30,0.0844444
Green_YC310_Pro_5B88_261010_232239.csv,5,48,25,8,31902.2,0.0876089,5.39723e+06,0.479447,32.41,0.09,0.401667,0.0149997,0.0461863,0.222005,-0.00282299,0.777995,0.789746,0.567329,0.6566,0.119986,0.201723,0.335626,0.16334,2026-10-10 23:22:39,150,5.3,0.235714,0,0,84.2697,0.553371,0,0.384615,0.538462,0.0769231,0,2,47,30,0.0961905
Green_YC310_Pro_5B88_261010_232507.csv,5,49,26,4,50224.1,0.160896,5.51153e+06,0.502306,32.52,0.11,0.42,0.018333,0.0413187,0.138081,-0.0048676,0.861919,0.776742,0.545692,0.643597,0.120449,0.207405,0.322345,0.15403,2026-10-10 23:25:07,148,5.3,0.235714,0,0,85.4326,0.567907,0,0.631579,0.368421,0,0,2,48,30,0.0871429
Green_YC310_Pro_5B88_261010_232738.csv,5,50,23,6,32204.3,0.0888171,5.24967e+06,0.449933,32.6,0.08,0.433333,0.0133333,0.0519534,0.321438,0.0106347,0.678562,0.77024,0.515797,0.637095,0.112843,0.213215,0.315118,0.165921,2026-10-10 23:27:38,151,5.3,0.235714,0,0,77.095,0.463687,0,0.315789,0.578947,0.0526316,0.0526316,2,49,30,0.0890909
Green_YC310_Pro_5B88_261010_233012.csv,5,51,21,1,45759.5,0.143038,5.09882e+06,0.419764,32.56,-0.04,0.426667,-0.00666633,0.043657,0.178396,-0.00829644,0.821604,0.78461,0.531642,0.651465,0.108204,0.212093,0.32909,0.207286,2026-10-10 23:30:12,154,5.3,0.235714,0,0,71.754,0.396925,0.0769231,0.461538,0.461538,0,0,2,50,30,0.0885714
Green_YC310_Pro_5B88_261010_233238.csv,5,52,26,4,46744.6,0.146978,5.76029e+06,0.552058,32.59,0.03,0.431667,0.00499967,0.0447321,0.196934,0.00107515,0.803066,0.813349,0.547486,0.667309,0.101911,0.214998,0.357299,0.213393,2026-10-10 23:32:38,146,5.3,0.235714,0,0,87.0536,0.58817,0,0.65,0.25,0.1,0,2,51,30,0.0853333
Green_YC310_Pro_5B88_261010_233508.csv,5,53,27,10,27741.9,0.0709676,5.57781e+06,0.515561,32.66,0.07,0.443333,0.0116663,0.0469528,0.235221,0.00222069,0.764779,0.814596,0.618685,0.668557,0.0956172,0.220006,0.35766,0.219667,2026-10-10 23:35:08,150,5.3,0.235714,0,0,90.5028,0.631285,0,0.238095,0.714286,0.047619,0,2,52,30,0.1
Green_YC310_Pro_5B88_261010_233739.csv,5,54,21,3,27226.5,0.0689061,5.00379e+06,0.400759,32.72,0.06,0.453333,0.0100003,0.0411016,0.134339,-0.00585116,0.865661,0.826383,0.601337,0.651208,0.0638787,0.229861,0.368306,0.198382,2026-10-10 23:37:39,151,5.3,0.235714,0,0,71.1864,0.38983,0.0625,0.375,0.5625,0,0,2,53,30,0.0955556
Green_YC310_Pro_5B88_261010_234008.csv,5,55,29,10,22940.6,0.0517624,5.63062e+06,0.526124,32.7,-0.02,0.45,-0.003333,0.0424016,0.156752,0.0013,0.843248,0.848708,0.579904,0.629775,0.0732859,0.226823,0.389748,0.210943,2026-10-10 23:40:08,149,5.3,0.235714,0,0,97.8628,0.723285,0,0.423077,0.576923,0,0,2,54,30,0.0955556
Green_YC310_Pro_5B88_261010_234239.csv,5,56,27,7,30904,0.0836161,5.54348e+06,0.508696,32.72,0.02,0.453333,0.00333333,0.0427515,0.162784,0.000349864,0.837216,0.82912,0.581929,0.6318,0.0826932,0.225888,0.369263,0.223004,2026-10-10 23:42:39,151,5.3,0.235714,0,0,90.1001,0.626251,0.037037,0.37037,0.555556,0.037037,0,2,55,30,0.0972727
Green_YC310_Pro_5B88_261010_234508.csv,5,57,23,7,38406,0.113624,5.23977e+06,0.447953,32.75,0.03,0.458333,0.00500033,0.043391,0.17381,0.000639498,0.82619,0.818662,0.611494,0.661365,0.0769691,0.228673,0.357835,0.233054,2026-10-10 23:45:08,149,5.3,0.235714,0,0,77.2676,0.465845,0,0.538462,0.384615,0.0769231,0,2,56,30,0.12
Green_YC310_Pro_5B88_261010_234738.csv,5,58,26,6,22513.9,0.0500555,5.04034e+06,0.408069,32.69,-0.06,0.448333,-0.00999967,0.0453404,0.20742,0.00194935,0.79258,0.842158,0.601656,0.651528,0.071245,0.226729,0.380838,0.227118,2026-10-10 23:47:38,150,5.3,0.235714,0,0,87.739,0.596738,0,0.45,0.45,0.1,0,2,57,30,0.114545
Green_YC310_Pro_5B88_261010_235009.csv,5,59,32,8,8548.62,0,5.21624e+06,0.443248,32.59,-0.1,0.431667,-0.0166663,0.0426673,0.161333,-0.00267309,0.838667,0.865653,0.596738,0.646609,0.0500555,0.225948,0.404499,0.225765,2026-10-10 23:50:09,151,5.3,0.235714,0,0,104.689,0.808612,0.0322581,0.516129,0.451613,0,0,2,58,30,0.0823077
Green_YC310_Pro_5B88_261010_235238.csv,5,60,14,3,108978,0.395911,5.48483e+06,0.496967,32.5,-0.09,0.416667,-0.0150003,0.0646008,0.539497,0.0219335,0.460503,0.934385,0.653677,0.703548,0.0500555,0.221219,0.473917,0.228756,2026-10-10 23:52:38,149,5.3,0.235714,0,0,56,0.2,0,0.111111,0.444444,0.222222,0.222222,2,59,30,0.106667
Green_YC310_Pro_5B88_261010_235508.csv,5,61,16,5,92567.9,0.330271,5.8051e+06,0.56102,32.43,-0.07,0.405,-0.011667,0.0650472,0.547193,0.00044642,0.452807,1.02952,0.596738,0.646609,0.0500555,0.217541,0.570079,0.28909,2026-10-10 23:55:08,150,5.3,0.235714,0,0,53.6313,0.170391,0,0.0909091,0.454545,0.272727,0.181818,2,60,30,0.108
Green_YC310_Pro_5B88_261010_235738.csv,5,62,26,5,10631.9,0.00252762,4.6989e+06,0.33978,32.34,-0.09,0.39,-0.015,0.0436752,0.17871,-0.021372,0.82129,0.969885,0.604087,0.653958,0.0502519,0.21277,0.511882,0.37209,2026-10-10 23:57:38,150,5.1,0.221429,0,0,87.1508,0.589385,0.05,0.35,0.6,0,0,2,61,30,0.101333
Green_YC310_Pro_5B88_261011_000024.csv,5,63,27,10,22661.2,0.0506446,4.98507e+06,0.397014,32.14,-0.2,0.356667,-0.0333333,0.0446814,0.196058,0.00100619,0.803942,0.873023,0.632208,0.682079,0.0516811,0.201958,0.417487,0.459756,2026-10-11 00:00:24,166,5.1,0.221429,0,0,89.5028,0.618785,0,0.333333,0.666667,0,0,2,62,30,0.104348
Green_YC310_Pro_5B88_261011_000239.csv,5,64,28,14,23585.8,0.0543431,4.9354e+06,0.38708,32.18,0.04,0.363333,0.00666633,0.0444449,0.191982,-0.00023646,0.808018,0.799739,0.629544,0.679415,0.0542655,0.203514,0.346135,0.416699,2026-10-11 00:02:39,135,5.1,0.221429,0,0,94.4882,0.681103,0,0.428571,0.571429,0,0,2,63,30,0.0955556
Green_YC310_Pro_5B88_261011_000509.csv,5,65,28,13,24452.2,0.0578089,5.01045e+06,0.40209,32.21,0.03,0.368333,0.00500033,0.0461293,0.221022,0.00168435,0.778978,0.794054,0.626879,0.67675,0.0674523,0.202306,0.34197,0.349616,2026-10-11 00:05:09,150,5.4,0.242857,0,0,90.4198,0.630247,0.0344828,0.241379,0.689655,0.0344828,0,2,64,30,0.105185
Green_YC310_Pro_5B88_261011_000738.csv,5,66,25,10,32551.3,0.090205,5.08937e+06,0.417874,32.2,-0.01,0.366667,-0.00166633,0.044316,0.189759,-0.0018133,0.810241,0.781994,0.609522,0.66469,0.073647,0.200472,0.331307,0.281892,2026-10-11 00:07:38,149,5.4,0.242857,0,0,85.8124,0.572655,0,0.16,0.84,0,0,2,65,30,0.111304
Green_YC310_Pro_5B88_261011_001009.csv,5,67,28,14,29025.8,0.0761032,4.99786e+06,0.399571,32.22,0.02,0.37,0.003333,0.045776,0.214931,0.00145999,0.785069,0.756761,0.610195,0.665363,0.0798418,0.200215,0.307185,0.278243,2026-10-11 00:10:09,151,5.4,0.242857,0,0,90.3226,0.629032,0,0.172414,0.827586,0,0,2,66,30,0.112857
Green_YC310_Pro_5B88_261011_001238.csv,5,68,27,6,28304.3,0.0732171,5.03329e+06,0.406659,32.25,0.03,0.375,0.005,0.0505197,0.296718,0.00474366,0.703282,0.775046,0.628897,0.683647,0.0497734,0.208141,0.326266,0.271035,2026-10-11 00:12:38,149,5.4,0.242857,0,0,90.301,0.628763,0,0.296296,0.62963,0,0.0740741,2,67,30,0.115455
Green_YC310_Pro_5B88_261011_001514.csv,5,69,33,10,7650.86,0,4.33274e+06,0.266547,32.3,0.05,0.383333,0.00833333,0.0411346,0.134907,-0.00938507,0.865093,0.784188,0.628763,0.683512,0.0366085,0.213549,0.335809,0.270035,2026-10-11 00:15:14,156,5.4,0.242857,0,0,110.368,0.8796,0,0.5625,0.40625,0.03125,0,2,68,30,0.0755556
