Sheet Name,Segment,Index,total_beat_count,Sel_Min,diff,diff_n,mean,mean_n,temp,temp_raw_diff,temp_n,temp_diff,rise_low,rise_low_n,rise_low_diff,rise_low_n_inv,rise_low_n_inv_center,HR_n_center,HR_n_center_lim,diff_n_center,diff_anker,rl_inv_corr,inv_corr,datetime,time_gap_seconds,CGM,CGM_n,SMBG,SMBG_n,HR,HR_n,r20,r40,r60,r80,r100,time_gap_state,time_gap_slot,time_gap_offset_s,rise_low_50
Green_YC310_Pro_5B88_260929_171940.csv,2,1,42,20,26788.7,0.067155,5.27567e+06,0.455135,32.88,0,0.48,0,0.0514286,0.312389,0,0.687611,0.687611,0.629842,0.629842,0.067155,0.237577,0.26442,0.25,2026-09-29 17:19:40,0,5.7,0.264286,5.5,0.25,90.3874,0.629842,0.0238095,0.404762,0.547619,0.0238095,0,1,1,0,0.102564
Green_YC310_Pro_5B88_260929_172158.csv,2,2,39,23,18607.8,0.0344312,5.84702e+06,0.569403,33.05,0.17,0.508333,0.0283333,0.053,0.339483,0.0015714,0.660517,0.657183,0.556936,0.599415,0.0606328,0.247887,0.257534,0.232804,2026-09-29 17:21:58,138,5.6,0.257143,0,0,81.5331,0.519164,0,0.4,0.55,0.05,0,1,2,0,0.1015
Green_YC310_Pro_5B88_260929_172417.csv,2,3,38,8,34132.1,0.0965286,5.57177e+06,0.514354,33.13,0.08,0.521667,0.0133337,0.0551515,0.376578,0.00215152,0.623422,0.607922,0.521803,0.564281,0.0803121,0.247936,0.254294,0.229516,2026-09-29 17:24:17,139,5.7,0.264286,0,0,81.7204,0.521505,0,0.272727,0.69697,0.030303,0,1,3,0,0.106923
Green_YC310_Pro_5B88_260929_172637.csv,2,4,38,3,41548.3,0.126193,5.61905e+06,0.523811,33.28,0.15,0.546667,0.0249997,0.06,0.460172,0.0048485,0.539828,0.604671,0.521407,0.563885,0.0919517,0.25336,0.246859,0.216656,2026-09-29 17:26:37,140,5.6,0.257143,0,0,81.9554,0.524442,0,0.25,0.571429,0.107143,0.0714286,1,4,0,0.115238
Green_YC310_Pro_5B88_260929_172925.csv,2,5,37,6,35436.5,0.101746,5.61073e+06,0.522146,33.49,0.21,0.581667,0.0349997,0.0553846,0.380597,-0.00461538,0.619403,0.626992,0.54122,0.583698,0.103591,0.261938,0.249452,0.210672,2026-09-29 17:29:25,168,5.5,0.25,0,0,81.438,0.517975,0,0.269231,0.692308,0.0384615,0,1,5,30,0.108696
Green_YC310_Pro_5B88_260929_173145.csv,2,6,42,21,30708.8,0.082835,5.62676e+06,0.525352,33.65,0.16,0.608333,0.0266663,0.0544444,0.364387,-0.000940156,0.635613,0.652854,0.56788,0.60956,0.0862472,0.274008,0.253689,0.202838,2026-09-29 17:31:45,140,5.5,0.25,0,0,88.359,0.604487,0,0.305556,0.666667,0.0277778,0,1,6,30,0.10303
Green_YC310_Pro_5B88_260929_173405.csv,2,7,40,24,28540.1,0.0741605,5.74524e+06,0.549047,33.7,0.05,0.616667,0.00833367,0.0522222,0.326073,-0.00222218,0.673927,0.64911,0.568088,0.609769,0.0762017,0.278757,0.24894,0.19334,2026-09-29 17:34:05,140,5.5,0.25,0,0,83.5655,0.544569,0,0.388889,0.611111,0,0,1,7,30,0.101667
Green_YC310_Pro_5B88_260929_173624.csv,2,8,38,12,27902.4,0.0716096,5.49961e+06,0.499921,33.79,0.09,0.631667,0.0149997,0.0557576,0.387027,0.00353538,0.612973,0.640214,0.559209,0.60089,0.0675325,0.285317,0.242527,0.180367,2026-09-29 17:36:24,139,5.5,0.25,0,0,86.2983,0.578729,0,0.30303,0.636364,0.030303,0.030303,1,8,30,0.0985714
Green_YC310_Pro_5B88_260929_173844.csv,2,9,39,23,24206.9,0.0568274,5.54002e+06,0.508004,33.85,0.06,0.641667,0.00999967,0.052973,0.339017,-0.00278463,0.660983,0.624439,0.554329,0.59601,0.0879356,0.284161,0.229942,0.168937,2026-09-29 17:38:44,140,5.4,0.242857,0,0,84.0517,0.550646,0,0.351351,0.648649,0,0,1,9,30,0.103889
Green_YC310_Pro_5B88_260929_174101.csv,2,10,39,17,25198.9,0.0607956,5.36186e+06,0.472372,33.85,0,0.641667,-3.33333e-07,0.0586667,0.437184,0.00569367,0.562816,0.61322,0.541469,0.584791,0.108339,0.279853,0.22633,0.169635,2026-09-29 17:41:01,137,5.5,0.25,0,0,82.3944,0.52993,0,0.166667,0.733333,0.1,0,1,10,30,0.117037
Green_YC310_Pro_5B88_260929_174320.csv,2,11,38,7,49962.5,0.15985,5.64097e+06,0.528195,33.71,-0.14,0.618333,-0.0233337,0.0526667,0.333736,-0.00600003,0.666264,0.618029,0.526507,0.56983,0.133089,0.26727,0.231818,0.187706,2026-09-29 17:43:20,139,5.7,0.264286,0,0,83.2117,0.540146,0.0666667,0.4,0.366667,0.166667,0,2,11,30,0.064
Green_YC310_Pro_5B88_260929_174538.csv,2,12,38,5,42769.6,0.131078,4.78431e+06,0.356863,33.6,-0.11,0.6,-0.018333,0.0578571,0.423227,0.00519044,0.576773,0.62255,0.521996,0.565319,0.154438,0.256981,0.237452,0.203629,2026-09-29 17:45:38,138,5.8,0.271429,0,0,79.6646,0.495807,0,0.357143,0.464286,0.107143,0.0714286,2,12,30,0.062
Green_YC310_Pro_5B88_260929_174801.csv,2,13,40,5,58937,0.195748,4.98229e+06,0.396459,33.62,0.02,0.603333,0.00333333,0.0484615,0.261233,-0.00939556,0.738767,0.624613,0.530035,0.567382,0.149558,0.259062,0.238947,0.203042,2026-09-29 17:48:01,143,5.8,0.271429,0,0,83.3333,0.541666,0.0769231,0.5,0.346154,0.0769231,0,2,13,30,0.08
Green_YC310_Pro_5B88_260929_175017.csv,2,14,40,3,36030.6,0.104123,4.66966e+06,0.333931,33.54,-0.08,0.59,-0.013333,0.0523077,0.327546,0.00384619,0.672454,0.652866,0.558861,0.595635,0.121849,0.26071,0.261042,0.223489,2026-09-29 17:50:17,136,5.9,0.278571,0,0,84.2105,0.552631,0,0.5,0.384615,0.115385,0,2,14,30,0.0781818
Green_YC310_Pro_5B88_260929_175244.csv,2,15,41,12,21987.6,0.0479503,4.36176e+06,0.272353,33.5,-0.04,0.583333,-0.00666667,0.0529412,0.338469,0.000633476,0.661531,0.683891,0.588324,0.625097,0.112443,0.260594,0.283436,0.245999,2026-09-29 17:52:44,147,5.9,0.278571,0,0,87.234,0.590425,0,0.470588,0.470588,0,0.0588235,2,15,30,0.0866667
Green_YC310_Pro_5B88_260929_175456.csv,2,16,40,7,31373,0.085492,4.70572e+06,0.341144,33.31,-0.19,0.551667,-0.0316663,0.0483871,0.25995,-0.0045541,0.74005,0.699482,0.58621,0.622983,0.103036,0.252596,0.298235,0.268796,2026-09-29 17:54:56,132,5.8,0.271429,0,0,89.7532,0.621915,0.0322581,0.516129,0.451613,0,0,2,16,30,0.0823529
Green_YC310_Pro_5B88_260929_175714.csv,2,17,34,5,49530.5,0.158122,4.57209e+06,0.314418,33.31,0,0.551667,-3.33333e-07,0.06,0.460172,0.0116129,0.539828,0.694145,0.595023,0.631796,0.100784,0.253072,0.296349,0.266435,2026-09-29 17:57:14,138,5.8,0.271429,0,0,73.7527,0.421909,0.047619,0.238095,0.52381,0.047619,0.142857,2,17,30,0.0833333
Green_YC310_Pro_5B88_260929_175933.csv,2,18,43,18,20298.7,0.0411946,4.89091e+06,0.378183,33.4,0.09,0.566667,0.0149997,0.0475,0.244655,-0.0125,0.755345,0.688807,0.594384,0.631157,0.0921693,0.25962,0.29028,0.253817,2026-09-29 17:59:33,139,6,0.285714,0,0,91.4894,0.643618,0,0.625,0.375,0,0,2,18,30,0.0881081
Green_YC310_Pro_5B88_260929_180151.csv,2,19,38,1,42041.4,0.128166,4.83289e+06,0.366579,33.34,-0.06,0.556667,-0.0100003,0.0535484,0.348938,0.00604839,0.651062,0.683526,0.578718,0.625876,0.0863117,0.257704,0.287362,0.252815,2026-09-29 18:01:51,138,6,0.285714,0,0,80.5085,0.506356,0,0.387097,0.548387,0.0645161,0,2,19,30,0.087
Green_YC310_Pro_5B88_260929_180410.csv,2,20,44,12,29036.1,0.0761444,5.05103e+06,0.410206,33.38,0.04,0.563333,0.00666633,0.0502564,0.292179,-0.00329199,0.707821,0.680207,0.588899,0.636057,0.0895744,0.259117,0.285444,0.249484,2026-09-29 18:04:10,139,5.8,0.271429,0,0,96.0699,0.700874,0.025641,0.487179,0.435897,0.0512821,0,2,20,30,0.0933333
Green_YC310_Pro_5B88_260929_180629.csv,2,21,41,23,22745.7,0.0509829,5.12242e+06,0.424485,33.37,-0.01,0.561667,-0.00166633,0.0517073,0.317195,0.00145092,0.682805,0.67337,0.607662,0.65482,0.0735864,0.261968,0.284297,0.245486,2026-09-29 18:06:29,139,6.3,0.307143,0,0,85.4167,0.567709,0.0243902,0.365854,0.609756,0,0,2,21,30,0.104
Green_YC310_Pro_5B88_260929_180849.csv,2,22,89,23,25226.5,0.0609062,4.9786e+06,0.39572,33.48,0.11,0.58,0.018333,0.052987,0.339259,0.00127971,0.660741,0.658387,0.614512,0.66167,0.0575984,0.271124,0.273097,0.22513,2026-09-29 18:08:49,140,6.4,0.314286,0,0,91.0331,0.637914,0,0.350649,0.649351,0,0,2,23,30,0.0979104
Green_YC310_Pro_5B88_260929_180849.csv,2,23,89,23,25226.5,0.0609062,4.9786e+06,0.39572,33.48,0,0.58,-4.44089e-16,0.052987,0.339259,1.2987e-08,0.660741,0.620535,0.560312,0.623817,0.096474,0.262915,0.245118,0.20536,2026-09-29 18:08:49,0,6.4,0.314286,0,0,91.0331,0.637914,0,0.350649,0.649351,0,0,2,23,30,0.0979104
Green_YC310_Pro_5B88_260929_181326.csv,2,24,42,9,26668.7,0.0666748,4.97125e+06,0.394249,33.5,0.02,0.583333,0.00333333,0.0558621,0.388829,0.00287507,0.611171,0.619767,0.598698,0.662203,0.0898487,0.265365,0.248824,0.206616,2026-09-29 18:13:26,277,5.5,0.25,0,0,88.4211,0.605264,0,0.206897,0.793103,0,0,2,24,30,0.1024
Green_YC310_Pro_5B88_260929_181545.csv,2,25,39,7,45491.4,0.141965,5.13857e+06,0.427715,33.55,0.05,0.591667,0.00833367,0.0572414,0.41261,0.00137928,0.58739,0.629484,0.599149,0.662654,0.087026,0.268589,0.252656,0.207224,2026-09-29 18:15:45,139,5.6,0.257143,0,0,84.2333,0.552916,0,0.37931,0.448276,0.103448,0.0689655,2,25,30,0.08
Green_YC310_Pro_5B88_260929_181804.csv,2,26,44,18,23438.1,0.0537523,5.10097e+06,0.420194,33.5,-0.05,0.583333,-0.00833367,0.0517949,0.318705,-0.00544653,0.681295,0.648514,0.59862,0.662125,0.0842033,0.266557,0.264913,0.221513,2026-09-29 18:18:04,139,5.9,0.278571,0,0,91.6667,0.645834,0,0.410256,0.589744,0,0,2,26,30,0.0969231
Green_YC310_Pro_5B88_260929_182023.csv,2,27,43,17,16610.4,0.0264415,4.75089e+06,0.350177,33.45,-0.05,0.575,-0.008333,0.0539535,0.355922,0.00215859,0.644078,0.665352,0.597111,0.660615,0.06424,0.268145,0.27582,0.230832,2026-09-29 18:20:23,139,5.7,0.264286,0,0,90.2729,0.628411,0,0.302326,0.697674,0,0,2,27,30,0.100588
Green_YC310_Pro_5B88_260929_182243.csv,2,28,39,6,19405.8,0.0376231,4.83361e+06,0.366722,33.31,-0.14,0.551667,-0.0233333,0.0511765,0.308043,-0.00277703,0.691957,0.657428,0.573307,0.652691,0.0442768,0.265004,0.273071,0.231224,2026-09-29 18:22:43,140,5.7,0.264286,0,0,83.871,0.548387,0,0.5,0.441176,0.0588235,0,2,28,30,0.0982609
Green_YC310_Pro_5B88_260929_182502.csv,2,29,41,19,27191.5,0.0687659,5.00212e+06,0.400425,33.33,0.02,0.555,0.003333,0.0564103,0.39828,0.00523376,0.60172,0.634435,0.550798,0.630182,0.0607974,0.262566,0.256712,0.217302,2026-09-29 18:25:02,139,5.8,0.271429,0,0,85.9539,0.574424,0,0.179487,0.820513,0,0,2,29,30,0.104211
Green_YC310_Pro_5B88_260929_182720.csv,2,30,40,17,27676.2,0.0707047,4.97272e+06,0.394544,33.41,0.08,0.568333,0.0133333,0.0540541,0.357656,-0.00235625,0.642344,0.615097,0.529583,0.610844,0.0782079,0.263094,0.240561,0.200625,2026-09-29 18:27:20,138,5.8,0.271429,0,0,85.2273,0.565341,0,0.297297,0.702703,0,0,2,30,30,0.105946
Green_YC310_Pro_5B88_260929_182942.csv,2,31,37,21,33788.3,0.0951532,5.07943e+06,0.415886,33.41,0,0.568333,3.33333e-07,0.0561111,0.393123,0.00205701,0.606877,0.601228,0.525549,0.60681,0.0867513,0.26129,0.23229,0.194157,2026-09-29 18:29:42,142,5.8,0.271429,0,0,78.7793,0.484741,0,0.222222,0.75,0.0277778,0,2,31,30,0.108235
Green_YC310_Pro_5B88_260929_183158.csv,2,32,40,9,31723.2,0.0868928,5.04338e+06,0.408676,33.43,0.02,0.571667,0.00333367,0.0588235,0.439888,0.00271243,0.560112,0.591254,0.531781,0.613043,0.101389,0.25925,0.226818,0.190725,2026-09-29 18:31:58,136,5.8,0.271429,0,0,84.9858,0.562322,0,0.294118,0.529412,0.117647,0.0588235,2,32,30,0.102609
Green_YC310_Pro_5B88_260929_183417.csv,2,33,39,11,34027.8,0.0961112,5.34973e+06,0.469946,33.49,0.06,0.581667,0.00999967,0.0557895,0.387577,-0.00303403,0.612423,0.592574,0.54828,0.614362,0.122122,0.258025,0.227621,0.192753,2026-09-29 18:34:17,139,5.8,0.271429,0,0,83.4522,0.543153,0,0.315789,0.631579,0,0.0526316,2,33,30,0.0994286
Green_YC310_Pro_5B88_260929_183636.csv,2,34,29,3,49337.8,0.157351,4.70468e+06,0.340936,33.5,0.01,0.583333,0.00166633,0.06875,0.611034,0.0129605,0.388966,0.598948,0.53552,0.601603,0.117574,0.259511,0.229261,0.192908,2026-09-29 18:36:36,139,5.7,0.264286,0,0,63.2267,0.290334,0,0,0.6875,0.1875,0.125,2,34,30,0.126667
Green_YC310_Pro_5B88_260929_183855.csv,2,35,38,27,31811.4,0.0872456,5.03277e+06,0.406554,33.55,0.05,0.591667,0.00833367,0.0553846,0.380597,-0.0133654,0.619403,0.605323,0.465314,0.531397,0.113026,0.263098,0.22238,0.182439,2026-09-29 18:38:55,139,5.4,0.242857,0,0,80.3949,0.504936,0,0.25641,0.717949,0.025641,0,2,35,30,0.107778
Green_YC310_Pro_5B88_260929_184118.csv,2,36,38,30,27175.3,0.0687012,5.0339e+06,0.40678,33.61,0.06,0.601667,0.00999967,0.0558974,0.389439,0.000512836,0.610561,0.611698,0.515129,0.537772,0.0890914,0.271305,0.230183,0.182034,2026-09-29 18:41:18,143,5.5,0.25,0,0,81.3124,0.516405,0,0.205128,0.794872,0,0,2,36,30,0.108947
Green_YC310_Pro_5B88_260929_184334.csv,2,37,38,10,31386.8,0.085547,5.0945e+06,0.418901,33.63,0.02,0.605,0.003333,0.0557576,0.387027,-0.000139824,0.612973,0.609731,0.463216,0.535804,0.0769531,0.27492,0.230183,0.17842,2026-09-29 18:43:34,136,5.6,0.257143,0,0,80.3949,0.504936,0,0.272727,0.666667,0.0606061,0,2,37,30,0.116667
Green_YC310_Pro_5B88_260929_184552.csv,2,38,32,6,28909.2,0.0756368,4.80767e+06,0.361534,33.61,-0.02,0.601667,-0.00333333,0.065,0.546379,0.0092424,0.453621,0.609328,0.453559,0.535401,0.076611,0.273941,0.230183,0.179399,2026-09-29 18:45:52,138,5.6,0.257143,0,0,69.4645,0.368306,0,0.25,0.375,0.25,0.125,2,38,30,0.0983333
Green_YC310_Pro_5B88_260929_184812.csv,2,39,39,5,27162.3,0.0686492,5.04136e+06,0.408272,33.55,-0.06,0.591667,-0.0100003,0.0489655,0.269923,-0.0160345,0.730077,0.608925,0.48609,0.567932,0.0696162,0.272265,0.230183,0.181075,2026-09-29 18:48:12,140,5.6,0.257143,0,0,83.274,0.540925,0,0.62069,0.310345,0.0689655,0,2,39,30,0.0828571
Green_YC310_Pro_5B88_260929_185032.csv,2,40,39,25,26140.7,0.0645626,5.07772e+06,0.415543,33.58,0.03,0.596667,0.00499967,0.0568421,0.405726,0.00787661,0.594274,0.608521,0.529504,0.611346,0.0713877,0.273467,0.230183,0.179872,2026-09-29 18:50:32,140,5.7,0.264286,0,0,81.4196,0.517745,0,0.157895,0.842105,0,0,2,40,30,0.111795
Green_YC310_Pro_5B88_260929_185250.csv,2,41,40,9,29996.1,0.0799844,5.16282e+06,0.432564,33.58,0,0.596667,-3.33333e-07,0.055,0.373966,-0.0018421,0.626034,0.617716,0.540849,0.620541,0.0604695,0.275773,0.236751,0.184135,2026-09-29 18:52:50,138,5.7,0.264286,0,0,84.2697,0.553371,0,0.28125,0.6875,0.03125,0,2,41,30,0.0966667
Green_YC310_Pro_5B88_260929_185509.csv,2,42,45,17,14336.6,0.0173466,4.93423e+06,0.386846,33.58,0,0.596667,-3.33333e-07,0.0482609,0.257774,-0.00673913,0.742226,0.630067,0.547256,0.626948,0.0426225,0.279542,0.24447,0.188085,2026-09-29 18:55:09,139,5.7,0.264286,0,0,97.9681,0.724601,0.0434783,0.5,0.456522,0,0,2,42,30,0.08125
Green_YC310_Pro_5B88_260929_185728.csv,2,43,35,7,23953.1,0.0558125,4.9586e+06,0.391721,33.46,-0.12,0.576667,-0.0200003,0.065625,0.557155,0.0173641,0.442845,0.639646,0.54949,0.629182,0.0396792,0.273857,0.254113,0.203413,2026-09-29 18:57:28,139,5.6,0.257143,0,0,76.9795,0.462244,0,0.125,0.625,0.09375,0.15625,2,43,30,0.101111
Green_YC310_Pro_5B88_260929_185948.csv,2,44,40,20,20379.5,0.041518,5.20182e+06,0.440363,33.51,0.05,0.585,0.008333,0.0533333,0.34523,-0.0122917,0.65477,0.63284,0.545452,0.625144,0.0458784,0.275176,0.24813,0.196111,2026-09-29 18:59:48,140,5.6,0.257143,0,0,84.8057,0.560071,0,0.333333,0.666667,0,0,2,44,30,0.1
Green_YC310_Pro_5B88_260929_190208.csv,2,45,42,5,24226.6,0.0569066,5.52033e+06,0.504065,33.51,0,0.585,-3.33067e-16,0.0496552,0.281813,-0.00367813,0.718187,0.626035,0.541413,0.621105,0.0403046,0.276353,0.243813,0.190618,2026-09-29 19:02:08,140,5.4,0.242857,0,0,89.4251,0.617814,0.0344828,0.482759,0.448276,0.0344828,0,2,46,30,0.0966667
Green_YC310_Pro_5B88_260929_190425.csv,2,46,9,1,31403.5,0.085614,5.82908e+06,0.565817,33.39,-0.12,0.565,-0.02,0.06,0.460172,0.0103448,0.539828,0.616456,0.522756,0.611527,0.0390913,0.270303,0.240115,0.192969,2026-09-29 19:04:25,137,5.3,0.235714,0,0,87.0968,0.58871,0,0.142857,0.714286,0.142857,0,2,46,30,0.1
Green_YC310_Pro_5B88_260929_190646.csv,2,47,39,8,19152.1,0.0366086,4.92312e+06,0.384623,33.24,-0.15,0.54,-0.025,0.0564286,0.398596,-0.00357143,0.601404,0.614667,0.521769,0.61054,0.0378779,0.262677,0.24399,0.20447,2026-09-29 19:06:46,141,5.3,0.235714,0,0,83.691,0.546138,0,0.357143,0.464286,0.178571,0,2,47,30,0.100952
Green_YC310_Pro_5B88_260929_190905.csv,2,48,37,16,19166.1,0.0366645,5.65683e+06,0.531366,33.16,-0.08,0.526667,-0.0133333,0.06,0.460172,0.0035714,0.539828,0.620669,0.491001,0.579773,0.0584448,0.25413,0.246167,0.215195,2026-09-29 19:09:05,139,5.3,0.235714,0,0,78.8352,0.48544,0,0.111111,0.777778,0.111111,0,2,48,30,0.115152
Green_YC310_Pro_5B88_260929_191121.csv,2,49,69,13,40339.8,0.121359,5.24143e+06,0.448286,33.19,0.03,0.531667,0.00499967,0.0555932,0.384193,-0.00440678,0.615807,0.617259,0.484124,0.576364,0.0790117,0.251363,0.242398,0.214192,2026-09-29 19:11:21,136,5.7,0.264286,0,0,78.6773,0.483466,0,0.271186,0.677966,0.0508475,0,2,50,30,0.104364
Green_YC310_Pro_5B88_260929_191121.csv,2,50,69,13,40339.8,0.121359,5.24143e+06,0.448286,33.19,0,0.531667,-3.33333e-07,0.0555932,0.384193,2.0339e-08,0.615807,0.615807,0.483466,0.575706,0.121359,0.242421,0.241502,0.222238,2026-09-29 19:11:21,0,5.6,0.257143,0,0,78.6773,0.483466,0,0.271186,0.677966,0.0508475,0,2,51,30,0.104364
