Sheet Name,Segment,Index,total_beat_count,Sel_Min,diff,diff_n,mean,mean_n,temp,temp_raw_diff,temp_n,temp_diff,rise_low,rise_low_n,rise_low_diff,rise_low_n_inv,rise_low_n_inv_center,HR_n_center,HR_n_center_lim,diff_n_center,diff_anker,rl_inv_corr,inv_corr,datetime,time_gap_seconds,CGM,CGM_n,SMBG,SMBG_n,HR,HR_n,r20,r40,r60,r80,r100,time_gap_state,time_gap_slot,time_gap_offset_s,rise_low_50
Green_YC310_Pro_5B88_261001_013024.csv,1,1,34,4,46709.6,0.146838,5.07755e+06,0.41551,33.81,0,0.635,0,0.0584764,0.433903,0,0.566097,0.566097,0.434751,0.434751,0.146838,0.269621,0.222402,0.25,2026-10-01 01:30:24,0,5.2,0.228571,5.5,0.25,74.7801,0.434751,0,0.304348,0.391304,0.0869565,0.217391,0,-1,-1,0.0953846
Green_YC310_Pro_5B88_261001_013223.csv,1,2,42,24,25204.1,0.0608164,5.08525e+06,0.41705,33.92,0.11,0.653333,0.0183333,0.0455606,0.211217,-0.0129158,0.788783,0.718975,0.540497,0.540497,0.0922577,0.286927,0.222402,0.25,2026-10-01 01:32:23,119,5.3,0.235714,0,0,88.9203,0.611504,0.0263158,0.315789,0.631579,0.0263158,0,0,-1,-1,0.0988571
Green_YC310_Pro_5B88_261001_013425.csv,1,3,38,4,35140,0.10056,5.11237e+06,0.422475,34.05,0.13,0.675,0.021667,0.0488401,0.267761,0.00327954,0.732239,0.771272,0.547475,0.547475,0.0796881,0.296413,0.222402,0.25,2026-10-01 01:34:25,122,5.3,0.235714,0,0,80.3383,0.504229,0,0.366667,0.5,0.133333,0,0,-1,-1,0.103846
Green_YC310_Pro_5B88_261001_013624.csv,1,4,41,25,24203.9,0.0568158,5.1655e+06,0.4331,34.15,0.1,0.691667,0.0166667,0.0434078,0.174101,-0.00543226,0.825899,0.792795,0.544561,0.544561,0.0730651,0.303066,0.23129,0.258888,2026-10-01 01:36:24,119,5.3,0.235714,0,0,85.595,0.569937,0,0.404762,0.595238,0,0,0,-1,-1,0.0990476
Green_YC310_Pro_5B88_261001_013824.csv,1,5,39,36,26028.4,0.0641138,5.16349e+06,0.432698,34.2,0.05,0.7,0.008333,0.0418157,0.14665,-0.00159209,0.85335,0.824828,0.559517,0.559517,0.0618195,0.308068,0.259568,0.287166,2026-10-01 01:38:24,120,5.2,0.228571,0,0,84.5376,0.55672,0,0.425,0.575,0,0,0,-1,-1,0.0985
Green_YC310_Pro_5B88_261001_014023.csv,1,6,40,35,26132.2,0.0645289,5.36199e+06,0.472398,34.24,0.04,0.706667,0.00666667,0.0432664,0.171662,0.0014507,0.828338,0.841089,0.54378,0.54378,0.0660355,0.30928,0.259142,0.28674,2026-10-01 01:40:23,119,5.2,0.228571,0,0,84.1515,0.551894,0,0.414634,0.585366,0,0,0,-1,-1,0.100976
Green_YC310_Pro_5B88_261001_014226.csv,1,7,39,30,27366,0.0694639,5.2599e+06,0.451981,34.28,0.04,0.713333,0.00666633,0.0417589,0.14567,-0.00150753,0.85433,0.837498,0.536382,0.540189,0.0659311,0.311404,0.249586,0.277184,2026-10-01 01:42:26,123,5.1,0.221429,0,0,81.8182,0.522728,0,0.35,0.65,0,0,0,-1,-1,0.099
Green_YC310_Pro_5B88_261001_014423.csv,1,8,39,38,25573.5,0.062294,5.28626e+06,0.457252,34.32,0.04,0.72,0.006667,0.0428022,0.163659,0.00104332,0.836341,0.829824,0.528983,0.53279,0.0803887,0.310453,0.237071,0.264669,2026-10-01 01:44:23,117,5.1,0.221429,0,0,82.5106,0.531382,0,0.425,0.575,0,0,0,-1,-1,0.097
Green_YC310_Pro_5B88_261001_014624.csv,1,9,39,14,41875.9,0.127503,5.40376e+06,0.480752,34.34,0.02,0.723333,0.00333333,0.0446015,0.194681,0.00179932,0.805319,0.828201,0.533329,0.537136,0.0975575,0.307879,0.237374,0.264972,2026-10-01 01:46:24,121,5.1,0.221429,0,0,82.6271,0.532839,0,0.394737,0.552632,0.0263158,0.0263158,0,-1,-1,0.0972222
Green_YC310_Pro_5B88_261001_014827.csv,1,10,39,21,34197.2,0.096789,5.45221e+06,0.490442,34.36,0.02,0.726667,0.00333367,0.0420414,0.150541,-0.00256011,0.849459,0.827123,0.537011,0.540818,0.102875,0.307807,0.237679,0.265277,2026-10-01 01:48:27,123,5.1,0.221429,0,0,82.8612,0.535765,0,0.378378,0.621622,0,0,0,-1,-1,0.0983784
Green_YC310_Pro_5B88_261001_015025.csv,1,11,38,35,29561.9,0.0782477,5.5089e+06,0.50178,34.37,0.01,0.728333,0.00166633,0.0434644,0.175076,0.00142302,0.824924,0.82659,0.542526,0.546333,0.0933892,0.310335,0.240184,0.267782,2026-10-01 01:50:25,118,5.1,0.221429,0,0,83.3943,0.542429,0,0.512821,0.487179,0,0,0,-1,-1,0.0984615
Green_YC310_Pro_5B88_261001_015224.csv,1,12,37,31,34761.2,0.0990446,5.50612e+06,0.501224,34.37,0,0.728333,3.33333e-07,0.0446942,0.196279,0.00122976,0.803721,0.822274,0.527583,0.542017,0.0859296,0.311911,0.227773,0.255371,2026-10-01 01:52:24,119,5.1,0.221429,0,0,78.3898,0.479872,0,0.342105,0.657895,0,0,0,-1,-1,0.101579
Green_YC310_Pro_5B88_261001_015424.csv,1,13,40,22,26845.4,0.0673814,5.53401e+06,0.506802,34.37,0,0.728333,3.33333e-07,0.0427924,0.16349,-0.00190177,0.83651,0.821023,0.508216,0.540766,0.0835887,0.312405,0.215581,0.243179,2026-10-01 01:54:24,120,5.4,0.242857,0,0,84.507,0.556338,0,0.390244,0.609756,0,0,0,-1,-1,0.0970732
Green_YC310_Pro_5B88_261001_015623.csv,1,14,37,29,32537.1,0.0901485,5.44432e+06,0.488864,34.35,-0.02,0.725,-0.003333,0.042904,0.165413,0.000111557,0.834587,0.822837,0.496125,0.528674,0.0843401,0.311195,0.211919,0.239516,2026-10-01 01:56:23,119,5.4,0.242857,0,0,80.1444,0.501805,0.0263158,0.368421,0.605263,0,0,0,-1,-1,0.101622
Green_YC310_Pro_5B88_261001_015824.csv,1,15,38,31,33872.6,0.0954905,5.88062e+06,0.576125,34.34,-0.01,0.723333,-0.00166667,0.0443785,0.190835,0.00147445,0.809165,0.819848,0.495731,0.528281,0.0968203,0.308034,0.210368,0.237966,2026-10-01 01:58:24,121,5.4,0.242857,0,0,79.3872,0.49234,0,0.205128,0.794872,0,0,0,-1,-1,0.103077
Green_YC310_Pro_5B88_261001_020023.csv,1,16,37,33,36205.4,0.104822,5.83493e+06,0.566985,34.33,-0.01,0.721667,-0.00166633,0.0437277,0.179615,-0.000650821,0.820385,0.816858,0.500573,0.533123,0.0983005,0.307196,0.208578,0.236176,2026-10-01 02:00:23,119,5.4,0.242857,0,0,79.1726,0.489658,0,0.315789,0.684211,0,0,0,-1,-1,0.102632
Green_YC310_Pro_5B88_261001_020225.csv,1,17,39,32,33314.8,0.0932591,5.84356e+06,0.568712,34.32,-0.01,0.72,-0.001667,0.0436906,0.178976,-3.7077e-05,0.821024,0.824703,0.502877,0.535426,0.097262,0.30689,0.214701,0.242299,2026-10-01 02:02:25,122,5.4,0.242857,0,0,81.3065,0.516331,0,0.3,0.7,0,0,0,-1,-1,0.099
Green_YC310_Pro_5B88_261001_020423.csv,1,18,38,25,33369.9,0.0934797,5.85953e+06,0.571905,34.32,0,0.72,1.11022e-16,0.0430134,0.1673,-0.000677185,0.8327,0.827025,0.502642,0.535191,0.0937049,0.307641,0.216323,0.243921,2026-10-01 02:04:23,118,5.4,0.242857,0,0,79.6089,0.495111,0,0.435897,0.564103,0,0,0,-1,-1,0.1
Green_YC310_Pro_5B88_261001_020625.csv,1,19,37,36,33594,0.094376,5.78022e+06,0.556044,34.31,-0.01,0.718333,-0.00166667,0.0432097,0.170684,0.000196293,0.829316,0.829347,0.499439,0.531989,0.0995829,0.305874,0.218538,0.246136,2026-10-01 02:06:25,122,5.4,0.242857,0,0,79.1162,0.488953,0,0.394737,0.605263,0,0,0,-1,-1,0.0994737
Green_YC310_Pro_5B88_261001_020823.csv,1,20,37,23,37723.1,0.110893,6.0063e+06,0.60126,34.31,0,0.718333,3.33333e-07,0.0434005,0.173974,0.000190784,0.826026,0.827038,0.496237,0.529679,0.0916263,0.307555,0.216726,0.244324,2026-10-01 02:08:23,118,5.6,0.257143,0,0,79.456,0.4932,0,0.351351,0.648649,0,0,0,-1,-1,0.0994595
Green_YC310_Pro_5B88_261001_021023.csv,1,21,38,36,28919.5,0.075678,4.86186e+06,0.372373,34.3,-0.01,0.716667,-0.00166633,0.0434153,0.174229,1.4783e-05,0.825771,0.830096,0.498005,0.531447,0.0836697,0.308709,0.219651,0.247249,2026-10-01 02:10:23,120,5.6,0.257143,0,0,80.2817,0.503521,0,0.230769,0.769231,0,0,0,-1,-1,0.100513
Green_YC310_Pro_5B88_261001_021223.csv,1,22,38,25,26109.6,0.0644382,4.8417e+06,0.368341,34.28,-0.02,0.713333,-0.00333367,0.0427361,0.16252,-0.000679159,0.83748,0.830723,0.499773,0.532074,0.0681848,0.310928,0.221545,0.249143,2026-10-01 02:12:23,120,5.6,0.257143,0,0,79.8319,0.497899,0,0.384615,0.615385,0,0,0,-1,-1,0.0979487
Green_YC310_Pro_5B88_261001_021425.csv,1,23,39,1,41995.7,0.127983,4.8144e+06,0.36288,34.27,-0.01,0.711667,-0.00166633,0.0495363,0.279764,0.00680019,0.720236,0.828919,0.503826,0.536128,0.0649033,0.311096,0.221035,0.248633,2026-10-01 02:14:25,122,5.6,0.257143,0,0,81.8754,0.523443,0,0.314286,0.571429,0.0571429,0.0571429,0,-1,-1,0.0957143
Green_YC310_Pro_5B88_261001_021623.csv,1,24,38,34,26458.4,0.0658335,4.82236e+06,0.364473,34.25,-0.02,0.708333,-0.00333367,0.0435466,0.176493,-0.00598969,0.823507,0.799315,0.506863,0.539165,0.0691681,0.309144,0.201724,0.229322,2026-10-01 02:16:23,118,5.6,0.257143,0,0,81.2545,0.515681,0,0.342105,0.657895,0,0,0,-1,-1,0.1
Green_YC310_Pro_5B88_261001_021825.csv,1,25,37,35,29308.2,0.0772326,4.8151e+06,0.36302,34.25,0,0.708333,3.33333e-07,0.0436783,0.178764,0.000131692,0.821236,0.801964,0.512985,0.541814,0.082606,0.306306,0.20342,0.231018,2026-10-01 02:18:25,122,5.6,0.257143,0,0,80.0866,0.501083,0,0.236842,0.763158,0,0,0,-1,-1,0.103684
Green_YC310_Pro_5B88_261001_022023.csv,1,26,38,25,36188.1,0.104752,5.31295e+06,0.46259,34.24,-0.01,0.706667,-0.00166633,0.0471633,0.23885,0.003485,0.76115,0.794147,0.522193,0.551021,0.0969635,0.302749,0.196754,0.224352,2026-10-01 02:20:23,118,5.6,0.257143,0,0,81.6619,0.520774,0,0.135135,0.864865,0,0,0,-1,-1,0.104865
Green_YC310_Pro_5B88_261001_022225.csv,1,27,38,20,37226.5,0.108906,5.61189e+06,0.522377,34.23,-0.01,0.705,-0.001667,0.043789,0.180672,-0.00337435,0.819328,0.795066,0.529109,0.55194,0.0974978,0.302111,0.195673,0.223271,2026-10-01 02:22:25,122,5.6,0.257143,0,0,83.5777,0.544721,0,0.305556,0.694444,0,0,0,-1,-1,0.100588
Green_YC310_Pro_5B88_261001_022425.csv,1,28,40,29,31940.2,0.0877609,5.59307e+06,0.518615,34.21,-0.02,0.701667,-0.00333333,0.043804,0.180931,1.49974e-05,0.819069,0.80472,0.550514,0.561594,0.098032,0.300947,0.195673,0.223271,2026-10-01 02:24:25,120,5.5,0.25,0,0,83.9748,0.549685,0,0.230769,0.769231,0,0,0,-1,-1,0.103158
Green_YC310_Pro_5B88_261001_022624.csv,1,29,37,33,31789.5,0.087158,5.66616e+06,0.533232,34.2,-0.01,0.7,-0.001667,0.0454835,0.209888,0.00167949,0.790112,0.798657,0.52587,0.555531,0.0995583,0.300099,0.195673,0.223271,2026-10-01 02:26:24,119,5.5,0.25,0,0,77.9494,0.474367,0,0.27027,0.72973,0,0,0,-1,-1,0.107895
Green_YC310_Pro_5B88_261001_022826.csv,1,30,40,8,38371.2,0.113485,5.6383e+06,0.52766,34.18,-0.02,0.696667,-0.00333333,0.0448439,0.198861,-0.000639573,0.801139,0.793717,0.502864,0.550591,0.100992,0.298745,0.197917,0.225515,2026-10-01 02:28:26,122,5.5,0.25,0,0,85.1668,0.564585,0,0.322581,0.645161,0.0322581,0,0,-1,-1,0.10303
Green_YC310_Pro_5B88_261001_023023.csv,1,31,37,32,32460.5,0.0898419,5.66437e+06,0.532874,34.16,-0.02,0.693333,-0.00333367,0.0452688,0.206187,0.000424943,0.793813,0.789901,0.485661,0.546775,0.09898,0.298119,0.198631,0.226229,2026-10-01 02:30:23,117,5.5,0.25,0,0,77.2443,0.465554,0,0.315789,0.684211,0,0,0,-1,-1,0.105263
Green_YC310_Pro_5B88_261001_023226.csv,1,32,37,34,35687.7,0.102751,5.65531e+06,0.531063,34.15,-0.01,0.691667,-0.00166633,0.0463744,0.225248,0.00110556,0.774752,0.780059,0.472625,0.536933,0.0956913,0.298288,0.192806,0.220404,2026-10-01 02:32:26,123,5.5,0.25,0,0,77.1369,0.464211,0,0.157895,0.842105,0,0,0,-1,-1,0.108947
Green_YC310_Pro_5B88_261001_023425.csv,1,33,35,29,33731.5,0.094926,5.68502e+06,0.537003,34.13,-0.02,0.688333,-0.00333367,0.0465565,0.228388,0.00018209,0.771612,0.783473,0.471864,0.536172,0.0944809,0.297493,0.196888,0.224486,2026-10-01 02:34:25,119,5.5,0.25,0,0,74.4681,0.430851,0,0.222222,0.777778,0,0,0,-1,-1,0.109444
Green_YC310_Pro_5B88_261001_023623.csv,1,34,36,35,31552.7,0.0862108,5.92007e+06,0.584015,34.11,-0.02,0.685,-0.003333,0.0454326,0.209011,-0.00112389,0.790989,0.786887,0.471103,0.535411,0.090729,0.297234,0.200975,0.228573,2026-10-01 02:36:23,118,5.5,0.25,0,0,76.4331,0.455414,0,0.0810811,0.918919,0,0,0,-1,-1,0.107027
Green_YC310_Pro_5B88_261001_023824.csv,1,35,38,28,32873.8,0.0914953,5.8787e+06,0.575739,34.09,-0.02,0.681667,-0.00333333,0.0447847,0.197839,-0.000647921,0.802161,0.784234,0.471683,0.535991,0.0849091,0.297412,0.200681,0.228279,2026-10-01 02:38:24,121,5.6,0.257143,0,0,80.9084,0.511355,0,0.282051,0.717949,0,0,0,-1,-1,0.10359
Green_YC310_Pro_5B88_261001_024023.csv,1,36,36,23,27608.7,0.070435,5.99914e+06,0.599828,34.05,-0.04,0.675,-0.006667,0.0470181,0.236347,0.00223342,0.763653,0.780948,0.472263,0.536571,0.0782575,0.296715,0.201489,0.229087,2026-10-01 02:40:23,119,5.6,0.257143,0,0,76.2174,0.452717,0,0.189189,0.756757,0.0540541,0,0,-1,-1,0.105556
Green_YC310_Pro_5B88_261001_024224.csv,1,37,36,30,28558.1,0.0742323,4.94103e+06,0.388207,34.01,-0.04,0.668333,-0.00666667,0.0452392,0.205676,-0.00177889,0.794324,0.78322,0.447645,0.511953,0.0728422,0.295756,0.201489,0.229087,2026-10-01 02:42:24,121,5.6,0.257143,0,0,76.2174,0.452717,0,0.189189,0.810811,0,0,0,-1,-1,0.105405
Green_YC310_Pro_5B88_261001_024425.csv,1,38,35,32,28812.4,0.0752495,4.95447e+06,0.390893,33.98,-0.03,0.663333,-0.00499967,0.0452646,0.206114,2.54313e-05,0.793886,0.791684,0.447079,0.511387,0.0703001,0.294717,0.209968,0.237566,2026-10-01 02:44:25,121,5.6,0.257143,0,0,75,0.4375,0,0.25,0.75,0,0,0,-1,-1,0.107222
Green_YC310_Pro_5B88_261001_024624.csv,1,39,36,31,25702.1,0.0628086,5.49153e+06,0.498306,33.95,-0.03,0.658333,-0.00499967,0.0456731,0.213157,0.000408503,0.786843,0.783727,0.442773,0.50708,0.0701715,0.293167,0.206728,0.234326,2026-10-01 02:46:24,119,5.6,0.257143,0,0,76.4873,0.456091,0,0.189189,0.810811,0,0,0,-1,-1,0.107568
Green_YC310_Pro_5B88_261001_024824.csv,1,40,35,32,29954.9,0.0798195,5.60167e+06,0.520335,33.93,-0.02,0.655,-0.003333,0.0466238,0.229548,0.00095068,0.770452,0.788412,0.434726,0.499034,0.0668441,0.292819,0.211337,0.238935,2026-10-01 02:48:24,120,5.6,0.257143,0,0,75.431,0.442887,0,0.194444,0.805556,0,0,0,-1,-1,0.112222
Green_YC310_Pro_5B88_261001_025024.csv,1,41,35,27,29832.5,0.07933,5.62074e+06,0.524148,33.92,-0.01,0.653333,-0.00166667,0.0453869,0.208223,-0.00123688,0.791777,0.793098,0.455658,0.50372,0.0579041,0.294181,0.216445,0.244043,2026-10-01 02:50:24,120,5.6,0.257143,0,0,73.0689,0.413361,0,0.25,0.75,0,0,0,-1,-1,0.106111
Green_YC310_Pro_5B88_261001_025223.csv,1,42,43,34,18997.2,0.0359887,5.56146e+06,0.512292,33.92,0,0.653333,3.33333e-07,0.0439969,0.184256,-0.00139004,0.815744,0.786366,0.47659,0.524652,0.0752417,0.29052,0.212688,0.240286,2026-10-01 02:52:23,119,5.6,0.257143,0,0,91.4245,0.642806,0,0.318182,0.681818,0,0,0,-1,-1,0.0995238
Green_YC310_Pro_5B88_261001_025425.csv,1,43,38,36,28449.1,0.0737962,5.56571e+06,0.513142,33.91,-0.01,0.651667,-0.00166633,0.0453266,0.207182,0.00132968,0.792818,0.779635,0.484413,0.532475,0.0925794,0.286334,0.208694,0.236292,2026-10-01 02:54:25,122,5.4,0.242857,0,0,80.8511,0.510639,0,0.230769,0.769231,0,0,0,-1,-1,0.106667
Green_YC310_Pro_5B88_261001_025623.csv,1,44,35,37,47292.4,0.14917,5.76393e+06,0.552786,33.91,0,0.651667,-3.33333e-07,0.0481855,0.256475,0.00285895,0.743525,0.773125,0.476509,0.525965,0.104339,0.283851,0.204193,0.231791,2026-10-01 02:56:23,118,5.4,0.242857,0,0,74.9465,0.436831,0,0.0967742,0.83871,0.0645161,0,0,-1,-1,0.106429
Green_YC310_Pro_5B88_261001_025824.csv,1,45,35,17,34076.4,0.0963054,5.83073e+06,0.566146,33.93,0.02,0.655,0.003333,0.0467743,0.232144,-0.00141116,0.767856,0.766616,0.452878,0.519456,0.116098,0.282418,0.198334,0.225932,2026-10-01 02:58:24,121,5.4,0.242857,0,0,75.2688,0.44086,0,0.0909091,0.909091,0,0,0,-1,-1,0.108485
Green_YC310_Pro_5B88_261001_030025.csv,1,46,37,29,30756.3,0.0830253,5.79487e+06,0.558975,33.93,0,0.655,-1.11022e-16,0.0455071,0.210294,-0.00126723,0.789706,0.774767,0.447834,0.514412,0.102668,0.285254,0.204162,0.23176,2026-10-01 03:00:25,121,5.4,0.242857,0,0,77.514,0.468925,0,0.263158,0.710526,0.0263158,0,0,-1,-1,0.112222
Green_YC310_Pro_5B88_261001_030224.csv,1,47,35,26,31873.7,0.0874947,5.80304e+06,0.560609,33.95,0.02,0.658333,0.00333333,0.0467672,0.23202,0.00126007,0.76798,0.781984,0.449617,0.516194,0.089239,0.289141,0.207451,0.235049,2026-10-01 03:02:24,119,5.4,0.242857,0,0,73.736,0.4217,0,0.166667,0.805556,0.0277778,0,0,-1,-1,0.106667
Green_YC310_Pro_5B88_261001_030423.csv,1,48,37,26,33863.2,0.0954527,5.95024e+06,0.590048,33.95,0,0.658333,3.33333e-07,0.0447782,0.197728,-0.00198896,0.802272,0.780188,0.450849,0.517427,0.0789924,0.291305,0.206168,0.233766,2026-10-01 03:04:23,119,5.4,0.242857,0,0,78.8913,0.486141,0,0.342857,0.657143,0,0,0,-1,-1,0.105143
Green_YC310_Pro_5B88_261001_030623.csv,1,49,34,31,26460.8,0.065843,4.83711e+06,0.367421,33.94,-0.01,0.656667,-0.00166633,0.0479127,0.25177,0.00313447,0.74823,0.779234,0.466981,0.533559,0.0687458,0.292943,0.205877,0.233475,2026-10-01 03:06:23,120,5.4,0.242857,0,0,72.7532,0.409415,0,0.0857143,0.885714,0.0285714,0,0,-1,-1,0.109714
Green_YC310_Pro_5B88_261001_030823.csv,1,50,38,9,20509.7,0.042039,4.84629e+06,0.369257,33.93,-0.01,0.655,-0.001667,0.0452049,0.205084,-0.00270783,0.794916,0.7872,0.505388,0.541525,0.0604786,0.294163,0.212077,0.239675,2026-10-01 03:08:23,120,5.3,0.235714,0,0,79.9439,0.499299,0,0.282051,0.692308,0.025641,0,0,-1,-1,0.101081
Green_YC310_Pro_5B88_261001_031023.csv,1,51,41,38,27662.7,0.0706508,5.39711e+06,0.479423,33.93,0,0.655,-1.11022e-16,0.0438397,0.181547,-0.0013652,0.818453,0.799561,0.53691,0.553886,0.0607886,0.294098,0.221793,0.249391,2026-10-01 03:10:23,120,5.3,0.235714,0,0,88.1089,0.601361,0,0.341463,0.634146,0.0243902,0,0,-1,-1,0.0974359
Green_YC310_Pro_5B88_261001_031223.csv,1,52,37,36,24953.5,0.0598138,5.68985e+06,0.537971,33.91,-0.02,0.651667,-0.00333333,0.0433183,0.172558,-0.000521356,0.827442,0.832262,0.561012,0.577988,0.0670893,0.291716,0.247988,0.275586,2026-10-01 03:12:23,120,5.3,0.235714,0,0,80.3184,0.50398,0,0.315789,0.684211,0,0,0,-1,-1,0.102105
Green_YC310_Pro_5B88_261001_031422.csv,1,53,42,41,28746,0.0749839,5.56836e+06,0.513671,33.9,-0.01,0.65,-0.001667,0.0419583,0.149108,-0.00136002,0.850892,0.830929,0.570942,0.587919,0.0708033,0.290407,0.248675,0.276273,2026-10-01 03:14:22,119,5.3,0.235714,0,0,90.7781,0.634726,0,0.511628,0.488372,0,0,0,-1,-1,0.0962791
Green_YC310_Pro_5B88_261001_031625.csv,1,54,43,39,29403,0.0776121,5.56725e+06,0.513449,33.89,-0.01,0.648333,-0.00166667,0.0430432,0.167814,0.00108489,0.832186,0.829595,0.57412,0.591097,0.0872767,0.286402,0.248567,0.276165,2026-10-01 03:16:25,123,5.3,0.235714,0,0,89.7704,0.62213,0,0.431818,0.568182,0,0,0,-1,-1,0.0971429
Green_YC310_Pro_5B88_261001_031824.csv,1,55,39,35,37308.6,0.109234,5.74415e+06,0.548831,33.88,-0.01,0.646667,-0.00166633,0.044579,0.194293,0.00153579,0.805707,0.811333,0.538705,0.572835,0.0906042,0.285174,0.231759,0.259357,2026-10-01 03:18:24,119,5.3,0.235714,0,0,81.0811,0.513514,0,0.230769,0.769231,0,0,0,-1,-1,0.10359
Green_YC310_Pro_5B88_261001_032026.csv,1,56,39,38,30393,0.081572,5.69815e+06,0.53963,33.84,-0.04,0.64,-0.006667,0.0451358,0.203894,0.000556846,0.796106,0.779271,0.505185,0.540772,0.0939318,0.28237,0.20742,0.235018,2026-10-01 03:20:26,122,5.3,0.235714,0,0,82.2785,0.528481,0,0.25,0.75,0,0,0,-1,-1,0.1085
Green_YC310_Pro_5B88_261001_032223.csv,1,57,37,29,29657.4,0.0786296,5.67234e+06,0.534469,33.83,-0.01,0.638333,-0.00166667,0.0486221,0.264001,0.00348627,0.735999,0.753182,0.47356,0.514684,0.0900473,0.282664,0.185327,0.212925,2026-10-01 03:22:23,117,5.3,0.235714,0,0,77.9494,0.474367,0,0.0526316,0.921053,0.0263158,0,0,-1,-1,0.113684
Green_YC310_Pro_5B88_261001_032423.csv,1,58,35,30,32482.3,0.0899294,5.74498e+06,0.548996,33.81,-0.02,0.635,-0.003333,0.0491184,0.272559,0.000496319,0.727441,0.738874,0.460347,0.501471,0.0861628,0.282434,0.174981,0.202579,2026-10-01 03:24:23,120,5.3,0.235714,0,0,73.4266,0.417832,0,0,0.972222,0.0277778,0,0,-1,-1,0.115
Green_YC310_Pro_5B88_261001_032624.csv,1,59,37,2,51743,0.166972,5.80212e+06,0.560423,33.76,-0.05,0.626667,-0.00833333,0.0487433,0.266091,-0.000375117,0.733909,0.722042,0.409293,0.484639,0.115846,0.273538,0.159302,0.1869,2026-10-01 03:26:24,121,5.3,0.235714,0,0,79.9136,0.49892,0,0.3125,0.59375,0.0625,0.03125,0,-1,-1,0.101481
Green_YC310_Pro_5B88_261001_032823.csv,1,60,33,35,51919.5,0.167678,4.82335e+06,0.364669,33.78,0.02,0.63,0.003333,0.0513636,0.311269,0.00262029,0.688731,0.70674,0.411339,0.486686,0.117393,0.274263,0.147067,0.174665,2026-10-01 03:28:23,119,5.3,0.235714,0,0,71.3771,0.392214,0,0.181818,0.727273,0,0.0909091,0,-1,-1,0.113636
Green_YC310_Pro_5B88_261001_033023.csv,1,61,35,34,27163.9,0.0686558,4.94509e+06,0.389018,33.81,0.03,0.635,0.005,0.0499271,0.286502,-0.0014365,0.713498,0.69437,0.413386,0.488732,0.112302,0.276914,0.135983,0.163581,2026-10-01 03:30:23,120,5.3,0.235714,0,0,73.8397,0.422996,0,0.0555556,0.916667,0.0277778,0,0,-1,-1,0.118889
Green_YC310_Pro_5B88_261001_033223.csv,1,62,35,32,27556.8,0.070227,4.8525e+06,0.370501,33.82,0.01,0.636667,0.00166667,0.0529283,0.338247,0.00300122,0.661753,0.705357,0.449783,0.49972,0.100573,0.279916,0.151105,0.178703,2026-10-01 03:32:23,120,5.3,0.235714,0,0,73.9958,0.424948,0,0.0285714,0.857143,0.0857143,0.0285714,0,-1,-1,0.121212
Green_YC310_Pro_5B88_261001_033423.csv,1,63,38,6,43122.5,0.13249,4.7579e+06,0.351581,33.81,-0.01,0.635,-0.001667,0.0493308,0.276221,-0.0035975,0.723779,0.740822,0.443425,0.493361,0.0977357,0.27999,0.175237,0.202835,2026-10-01 03:34:23,120,5.6,0.257143,0,0,80.1124,0.501405,0,0.208333,0.708333,0.0833333,0,0,-1,-1,0.116
Green_YC310_Pro_5B88_261001_033625.csv,1,64,34,3,29025.7,0.0761029,4.73133e+06,0.346266,33.73,-0.08,0.621667,-0.0133333,0.0437564,0.18011,-0.00557442,0.81989,0.710295,0.437067,0.487003,0.0948986,0.276385,0.159042,0.18664,2026-10-01 03:36:25,122,5.6,0.257143,0,0,72.3918,0.404898,0,0.62963,0.296296,0.0740741,0,0,-1,-1,0.0866667
Green_YC310_Pro_5B88_261001_033827.csv,1,65,35,2,37387.7,0.109551,4.69892e+06,0.339784,33.67,-0.06,0.611667,-0.0100003,0.0500716,0.288993,0.0063152,0.711007,0.679768,0.431985,0.481921,0.0678868,0.278936,0.142094,0.169692,2026-10-01 03:38:27,122,5.6,0.257143,0,0,74.7331,0.434164,0,0.16129,0.741935,0.0967742,0,0,-1,-1,0.114667
Green_YC310_Pro_5B88_261001_034025.csv,1,66,38,9,22863.7,0.0514547,4.48938e+06,0.297877,33.66,-0.01,0.61,-0.001667,0.0600105,0.460353,0.0099389,0.539647,0.603895,0.45531,0.505247,0.0659315,0.278824,0.0962018,0.1238,2026-10-01 03:40:25,118,5.6,0.257143,0,0,78.8927,0.486159,0,0.103448,0.482759,0.344828,0.0689655,0,-1,-1,0.135
Green_YC310_Pro_5B88_261001_034224.csv,1,67,37,7,29613.3,0.0784531,4.54111e+06,0.308223,33.65,-0.01,0.608333,-0.00166667,0.0569584,0.407731,-0.00305211,0.592269,0.555554,0.478636,0.528572,0.071373,0.277149,0.0690301,0.096628,2026-10-01 03:42:24,119,5.7,0.264286,0,0,78.114,0.476425,0.0333333,0.2,0.5,0.2,0.0666667,0,-1,-1,0.126364
Green_YC310_Pro_5B88_261001_034423.csv,1,68,36,11,29282.8,0.0771313,4.47967e+06,0.295933,33.62,-0.03,0.603333,-0.00499967,0.0582904,0.430696,0.00133199,0.569304,0.534746,0.455013,0.507764,0.0797778,0.273798,0.0510843,0.0786823,2026-10-01 03:44:23,119,5.7,0.264286,0,0,77.8659,0.473324,0,0.03125,0.6875,0.28125,0,0,-1,-1,0.1264
Green_YC310_Pro_5B88_261001_034625.csv,1,69,34,7,31598.8,0.0863953,5.2578e+06,0.451559,33.57,-0.05,0.595,-0.008333,0.0636311,0.522777,0.00534067,0.477223,0.527493,0.455835,0.508586,0.075384,0.272098,0.0504812,0.0780792,2026-10-01 03:46:25,122,5.7,0.264286,0,0,73.2233,0.415291,0,0.0645161,0.483871,0.354839,0.0967742,0,-1,-1,0.136154
Green_YC310_Pro_5B88_261001_034827.csv,1,70,38,24,22903.5,0.0516139,5.32917e+06,0.465834,33.53,-0.04,0.588333,-0.00666667,0.0590856,0.444407,-0.00454552,0.555593,0.52024,0.454836,0.507587,0.0736669,0.270359,0.0489214,0.0765194,2026-10-01 03:48:27,122,5.7,0.264286,0,0,79.7761,0.497201,0,0.0810811,0.594595,0.324324,0,0,-1,-1,0.125625
Green_YC310_Pro_5B88_261001_035024.csv,1,71,35,15,25675.7,0.0627028,5.26428e+06,0.452855,33.51,-0.02,0.585,-0.003333,0.058641,0.436742,-0.000444578,0.563258,0.54734,0.452014,0.504766,0.0829914,0.267339,0.0710196,0.0986176,2026-10-01 03:50:24,117,5.7,0.264286,0,0,73.6842,0.421053,0,0.0606061,0.636364,0.272727,0.030303,0,-1,-1,0.124
Green_YC310_Pro_5B88_261001_035224.csv,1,72,34,16,38592.3,0.114369,5.21158e+06,0.442315,33.51,0,0.585,-3.33067e-16,0.0589157,0.441478,0.000274725,0.558522,0.572788,0.434079,0.486831,0.0869478,0.266503,0.101402,0.129,2026-10-01 03:52:24,120,5.7,0.264286,0,0,72.5462,0.406828,0,0.03125,0.625,0.34375,0,0,-1,-1,0.126897
Green_YC310_Pro_5B88_261001_035424.csv,1,73,36,9,31990.5,0.087962,5.294e+06,0.4588,33.49,-0.02,0.581667,-0.00333333,0.0558806,0.389149,-0.00303507,0.610851,0.589446,0.426307,0.479058,0.0909041,0.264617,0.121106,0.148704,2026-10-01 03:54:24,120,5.6,0.257143,0,0,75.4717,0.443396,0,0.09375,0.71875,0.1875,0,0,-1,-1,0.133103
Green_YC310_Pro_5B88_261001_035624.csv,1,74,36,18,27595.3,0.0703812,5.19226e+06,0.438453,33.47,-0.02,0.578333,-0.00333367,0.0578116,0.422441,0.00193099,0.577559,0.59659,0.428697,0.481448,0.0742026,0.267093,0.126267,0.153865,2026-10-01 03:56:24,120,5.7,0.264286,0,0,75.2089,0.440111,0,0.027027,0.675676,0.243243,0.0540541,0,-1,-1,0.128667
Green_YC310_Pro_5B88_261001_035824.csv,1,75,35,16,26066.2,0.0642647,5.16612e+06,0.433224,33.44,-0.03,0.573333,-0.00499967,0.0562096,0.39482,-0.00160202,0.60518,0.601361,0.426063,0.478814,0.0784594,0.264617,0.134103,0.161701,2026-10-01 03:58:24,120,5.7,0.264286,0,0,73.1198,0.413997,0,0.0833333,0.694444,0.194444,0.0277778,0,-1,-1,0.124667
Green_YC310_Pro_5B88_261001_040026.csv,1,76,35,14,34227.7,0.096911,5.50244e+06,0.500488,33.43,-0.01,0.571667,-0.00166633,0.055272,0.378655,-0.00093761,0.621345,0.640494,0.421671,0.474422,0.0796388,0.263843,0.16473,0.192328,2026-10-01 04:00:26,122,5.7,0.264286,0,0,74.8396,0.435495,0,0.0588235,0.794118,0.0882353,0.0588235,0,-1,-1,0.121935
Green_YC310_Pro_5B88_261001_040224.csv,1,77,34,22,25117.2,0.0604686,5.53059e+06,0.506118,33.44,0.01,0.573333,0.00166633,0.0510024,0.305042,-0.00426959,0.694958,0.627592,0.429821,0.482572,0.129274,0.253887,0.14999,0.177588,2026-10-01 04:02:24,118,5.6,0.257143,0,0,72.1358,0.401698,0,0.0606061,0.848485,0.0909091,0,0,-1,-1,0.12129
Green_YC310_Pro_5B88_261001_040424.csv,1,78,36,23,27081.8,0.0683271,5.6312e+06,0.526239,33.47,0.03,0.578333,0.00500033,0.0547596,0.36982,0.00375718,0.63018,0.614689,0.432598,0.48535,0.230443,0.2341,0.136482,0.16408,2026-10-01 04:04:24,120,5.4,0.242857,0,0,78.4314,0.480392,0,0.176471,0.617647,0.205882,0,0,-1,-1,0.127692
Green_YC310_Pro_5B88_261001_040623.csv,1,79,30,3,110104,0.400417,5.48039e+06,0.496077,33.49,0.02,0.581667,0.00333367,0.0603136,0.46558,0.00555404,0.53442,0.595347,0.415705,0.468456,0.214528,0.238512,0.129195,0.156793,2026-10-01 04:06:23,119,5.3,0.235714,0,0,64.4238,0.305297,0,0,0.736842,0.210526,0.0526316,0,-1,-1,0.134783
Green_YC310_Pro_5B88_261001_040827.csv,1,80,35,12,40182.7,0.120731,5.64555e+06,0.529109,33.52,0.03,0.586667,0.00499967,0.054368,0.363069,-0.00594562,0.636931,0.593963,0.387821,0.467073,0.198612,0.243449,0.133627,0.161225,2026-10-01 04:08:27,124,5.2,0.228571,0,0,75.5396,0.444245,0,0.142857,0.678571,0.107143,0.0714286,0,-1,-1,0.12
Green_YC310_Pro_5B88_261001_041023.csv,1,81,33,30,28672.3,0.0746893,5.655e+06,0.530999,33.56,0.04,0.593333,0.00666633,0.0551388,0.376359,0.00077082,0.623641,0.610539,0.372237,0.45149,0.0898798,0.268512,0.145591,0.173189,2026-10-01 04:10:23,116,5.2,0.228571,0,0,71.7391,0.396739,0,0,0.911765,0.0882353,0,0,-1,-1,0.126471
Green_YC310_Pro_5B88_261001_041223.csv,1,82,32,23,28554.8,0.0742191,5.70749e+06,0.541497,33.58,0.02,0.596667,0.00333367,0.0581894,0.428955,0.00305061,0.571045,0.572614,0.368956,0.448208,0.0806718,0.271507,0.117726,0.145324,2026-10-01 04:12:23,120,5.2,0.228571,0,0,68.2788,0.353485,0,0,0.787879,0.212121,0,0,-1,-1,0.130909
Green_YC310_Pro_5B88_261001_041423.csv,1,83,31,22,29479.1,0.0779166,5.73915e+06,0.547831,33.59,0.01,0.598333,0.00166633,0.0609669,0.476843,0.00277751,0.523157,0.576215,0.355906,0.435158,0.0743776,0.273362,0.12063,0.148228,2026-10-01 04:14:23,120,5.2,0.228571,0,0,67.2938,0.341173,0,0.03125,0.6875,0.28125,0,0,-1,-1,0.128667
Green_YC310_Pro_5B88_261001_041629.csv,1,84,33,22,26864.5,0.067458,5.78763e+06,0.557527,33.61,0.02,0.601667,0.00333367,0.0566691,0.402744,-0.00429776,0.597256,0.579816,0.348574,0.427826,0.0720725,0.274899,0.121455,0.149053,2026-10-01 04:16:29,126,5.2,0.228571,0,0,68.6071,0.357589,0,0,0.823529,0.176471,0,0,-1,-1,0.124118
Green_YC310_Pro_5B88_261001_041824.csv,1,85,32,24,28864.3,0.0754573,5.77603e+06,0.555206,33.63,0.02,0.605,0.003333,0.0554059,0.380964,-0.0012632,0.619036,0.586809,0.34696,0.426212,0.0723163,0.275899,0.124358,0.151956,2026-10-01 04:18:24,115,5.2,0.228571,0,0,67.9887,0.349859,0,0.030303,0.818182,0.151515,0,0,-1,-1,0.123125
Green_YC310_Pro_5B88_261001_042023.csv,1,86,31,27,27723.1,0.0708925,5.76887e+06,0.553774,33.64,0.01,0.606667,0.00166667,0.0553267,0.379599,-7.91691e-05,0.620401,0.629966,0.352205,0.431457,0.0727745,0.276328,0.153844,0.181442,2026-10-01 04:20:23,119,5.2,0.228571,0,0,66.9065,0.336331,0,0,0.875,0.125,0,0,-1,-1,0.125625
Green_YC310_Pro_5B88_261001_042225.csv,1,87,33,29,28464,0.0738558,5.73471e+06,0.546942,33.64,0,0.606667,-3.33333e-07,0.0535832,0.349538,-0.0017435,0.650462,0.634355,0.353832,0.433084,0.0722762,0.276433,0.15699,0.184588,2026-10-01 04:22:25,122,5.2,0.228571,0,0,69.8659,0.373324,0,0,0.882353,0.117647,0,0,-1,-1,0.118235
Green_YC310_Pro_5B88_261001_042425.csv,1,88,32,28,27625.2,0.0705007,5.76003e+06,0.552007,33.65,0.01,0.608333,0.00166633,0.055197,0.377362,0.00161381,0.622638,0.645099,0.351841,0.431093,0.0728437,0.276838,0.163483,0.191081,2026-10-01 04:24:25,120,5.2,0.228571,0,0,68.2788,0.353485,0,0.030303,0.787879,0.181818,0,0,-1,-1,0.118788
Green_YC310_Pro_5B88_261001_042626.csv,1,89,31,24,29129.4,0.0765176,5.71035e+06,0.54207,33.63,-0.02,0.605,-0.003333,0.0515999,0.315342,-0.00359714,0.684658,0.659516,0.349541,0.428794,0.0716854,0.276032,0.175502,0.2031,2026-10-01 04:26:26,121,5.2,0.228571,0,0,66.4286,0.330358,0,0.03125,0.9375,0.03125,0,0,-1,-1,0.11875
Green_YC310_Pro_5B88_261001_042824.csv,1,90,32,22,28574.2,0.0742969,5.93762e+06,0.587524,33.62,-0.01,0.603333,-0.00166667,0.0527836,0.335751,0.00118368,0.664249,0.671251,0.352518,0.43177,0.0680381,0.276277,0.184669,0.212267,2026-10-01 04:28:24,118,5.2,0.228571,0,0,69.3141,0.366426,0,0.03125,0.875,0.09375,0,0,-1,-1,0.120606
Green_YC310_Pro_5B88_261001_043024.csv,1,91,32,25,24889.6,0.0595585,4.97395e+06,0.39479,33.62,0,0.603333,3.33333e-07,0.0531551,0.342156,0.000371457,0.657844,0.681802,0.359919,0.439172,0.0656478,0.276781,0.191647,0.219245,2026-10-01 04:30:24,120,5.2,0.228571,0,0,67.7488,0.34686,0,0.030303,0.848485,0.121212,0,0,-1,-1,0.118125
Green_YC310_Pro_5B88_261001_043223.csv,1,92,33,27,27336.7,0.0693467,4.93736e+06,0.387471,33.62,0,0.603333,3.33333e-07,0.0497639,0.283688,-0.00339121,0.716312,0.676581,0.3647,0.443953,0.063885,0.277154,0.187512,0.21511,2026-10-01 04:32:23,119,5.2,0.228571,0,0,70.3625,0.379531,0,0.117647,0.852941,0.0294118,0,0,-1,-1,0.112121
Green_YC310_Pro_5B88_261001_043424.csv,1,93,32,27,24322,0.0572881,5.11603e+06,0.423207,33.61,-0.01,0.601667,-0.00166633,0.0555904,0.384144,0.00582646,0.615856,0.669812,0.367149,0.446401,0.0632526,0.276762,0.183366,0.210964,2026-10-01 04:34:24,121,5.2,0.228571,0,0,68.2303,0.352879,0,0.0909091,0.757576,0.151515,0,0,-1,-1,0.125455
Green_YC310_Pro_5B88_261001_043624.csv,1,94,33,29,24500.6,0.0580024,5.1039e+06,0.420781,33.61,0,0.601667,-3.33333e-07,0.048899,0.268775,-0.00669143,0.731225,0.698001,0.369036,0.448289,0.0631231,0.276789,0.203081,0.230679,2026-10-01 04:36:24,120,5.2,0.228571,0,0,70.7143,0.383929,0,0.0294118,0.941176,0.0294118,0,0,-1,-1,0.117059
Green_YC310_Pro_5B88_261001_043825.csv,1,95,33,27,27239.5,0.0689581,5.09864e+06,0.419728,33.61,0,0.601667,-3.33333e-07,0.0499154,0.286301,0.00101645,0.713699,0.720143,0.371893,0.451146,0.0613256,0.277169,0.220194,0.247792,2026-10-01 04:38:25,121,5.2,0.228571,0,0,70.8155,0.385194,0,0.0588235,0.911765,0.0294118,0,0,-1,-1,0.117059
Green_YC310_Pro_5B88_261001_044026.csv,1,96,32,28,23845.1,0.0553804,5.16428e+06,0.432856,33.59,-0.02,0.598333,-0.00333367,0.049437,0.278052,-0.000478404,0.721948,0.716026,0.373667,0.452919,0.0595282,0.276497,0.220871,0.248469,2026-10-01 04:40:26,121,5.2,0.228571,0,0,68.916,0.36145,0,0.0606061,0.939394,0,0,0,-1,-1,0.119394
Green_YC310_Pro_5B88_261001_044227.csv,1,97,33,31,22524.5,0.0500982,5.16799e+06,0.433598,33.58,-0.01,0.596667,-0.00166633,0.0503324,0.29349,0.000895409,0.70651,0.719063,0.374358,0.45361,0.0589903,0.276085,0.224814,0.252412,2026-10-01 04:42:27,121,5.2,0.228571,0,0,70.9169,0.386461,0,0.0588235,0.882353,0.0588235,0,0,-1,-1,0.115882
Green_YC310_Pro_5B88_261001_044425.csv,1,98,34,28,26836.1,0.0673444,5.10554e+06,0.421107,33.57,-0.01,0.595,-0.001667,0.0490568,0.271496,-0.00127561,0.728504,0.728731,0.382483,0.461735,0.0570059,0.275979,0.241373,0.268971,2026-10-01 04:44:25,118,5.2,0.228571,0,0,70.9812,0.387265,0,0.0285714,0.971429,0,0,0,-1,-1,0.115882
Green_YC310_Pro_5B88_261001_044623.csv,1,99,33,30,22590.3,0.0503613,5.14895e+06,0.42979,33.55,-0.02,0.591667,-0.00333333,0.0477547,0.249047,-0.00130208,0.750953,0.742463,0.395707,0.47496,0.0535752,0.275652,0.263992,0.29159,2026-10-01 04:46:23,118,5.2,0.228571,0,0,70.8661,0.385826,0,0.117647,0.882353,0,0,0,-1,-1,0.115294
Green_YC310_Pro_5B88_261001_044826.csv,1,100,34,27,19951.5,0.039806,5.1421e+06,0.428419,33.54,-0.01,0.59,-0.001667,0.0479431,0.252294,0.000188368,0.747706,0.749947,0.406256,0.482444,0.0515382,0.275557,0.276874,0.304472,2026-10-01 04:48:26,123,5.2,0.228571,0,0,73.913,0.423912,0,0.171429,0.828571,0,0,0,-1,-1,0.111176
Green_YC310_Pro_5B88_261001_045023.csv,1,101,33,27,22957.4,0.0518296,5.15171e+06,0.430342,33.52,-0.02,0.586667,-0.00333333,0.0476114,0.246575,-0.000331735,0.753425,0.743621,0.40903,0.485218,0.0495012,0.274936,0.275882,0.30348,2026-10-01 04:50:23,117,5.2,0.228571,0,0,71.8433,0.398041,0,0.117647,0.882353,0,0,0,-1,-1,0.113333
Green_YC310_Pro_5B88_261001_045223.csv,1,102,33,29,24799.1,0.0591963,5.132e+06,0.4264,33.5,-0.02,0.583333,-0.00333367,0.0485329,0.262464,0.0009215,0.737536,0.729731,0.406156,0.482344,0.0506868,0.273635,0.266843,0.294441,2026-10-01 04:52:23,120,5.2,0.228571,0,0,71.5318,0.394148,0,0.0588235,0.941176,0,0,0,-1,-1,0.114118
Green_YC310_Pro_5B88_261001_045423.csv,1,103,34,29,20840.7,0.043363,5.09525e+06,0.419051,33.49,-0.01,0.581667,-0.00166633,0.0503598,0.293962,0.0018269,0.706038,0.722204,0.399476,0.475664,0.0507401,0.273098,0.259884,0.287482,2026-10-01 04:54:23,120,5.2,0.228571,0,0,73.2233,0.415291,0,0,0.942857,0.0571429,0,0,-1,-1,0.118857
Green_YC310_Pro_5B88_261001_045624.csv,1,104,34,30,23779.7,0.0551188,5.11332e+06,0.422665,33.48,-0.01,0.58,-0.001667,0.0496807,0.282253,-0.000679126,0.717747,0.714677,0.38899,0.468137,0.0496612,0.2728,0.251644,0.279242,2026-10-01 04:56:24,121,5.2,0.228571,0,0,72.0339,0.400424,0,0.0571429,0.914286,0.0285714,0,0,-1,-1,0.114857
Green_YC310_Pro_5B88_261001_045824.csv,1,105,32,15,23989.8,0.0559593,5.5201e+06,0.504019,33.46,-0.02,0.576667,-0.00333333,0.0495357,0.279754,-0.000144965,0.720246,0.738251,0.391342,0.470489,0.052764,0.271094,0.271066,0.298664,2026-10-01 04:58:24,120,5.2,0.228571,0,0,69.0151,0.362689,0,0,0.969697,0.030303,0,0,-1,-1,0.116364
Green_YC310_Pro_5B88_261001_050023.csv,1,106,35,22,23167.9,0.0526716,5.56198e+06,0.512397,33.45,-0.01,0.575,-0.001667,0.046258,0.223241,-0.00327774,0.776759,0.745419,0.397859,0.477006,0.0556094,0.269968,0.279548,0.307146,2026-10-01 05:00:23,119,5.2,0.228571,0,0,73.7878,0.422348,0,0.361111,0.611111,0.0277778,0,0,-1,-1,0.104571
Green_YC310_Pro_5B88_261001_050223.csv,1,107,34,21,24081.8,0.056327,5.54208e+06,0.508416,33.43,-0.02,0.571667,-0.00333333,0.0475184,0.244973,0.00126045,0.755027,0.752587,0.408542,0.484174,0.0581974,0.26837,0.290241,0.317839,2026-10-01 05:02:23,120,5.2,0.228571,0,0,72.9092,0.411365,0,0.142857,0.857143,0,0,0,-1,-1,0.115429
Green_YC310_Pro_5B88_261001_050423.csv,1,108,34,20,26398.4,0.0655937,5.48056e+06,0.496112,33.41,-0.02,0.568333,-0.00333367,0.0490619,0.271585,0.00154355,0.728415,0.742325,0.409512,0.485145,0.0634325,0.266214,0.285362,0.31296,2026-10-01 05:04:23,120,5.2,0.228571,0,0,71.5789,0.394736,0,0.257143,0.685714,0.0571429,0,0,-1,-1,0.114706
Green_YC310_Pro_5B88_261001_050624.csv,1,109,35,24,27094.2,0.0683767,5.62113e+06,0.524227,33.4,-0.01,0.566667,-0.00166633,0.0480435,0.254027,-0.00101836,0.745973,0.719,0.410483,0.486115,0.119468,0.253856,0.270236,0.297834,2026-10-01 05:06:24,121,5.2,0.228571,0,0,72.9167,0.411459,0,0.166667,0.805556,0.0277778,0,0,-1,-1,0.114857
Green_YC310_Pro_5B88_261001_050824.csv,1,110,34,36,66108.2,0.224433,5.44305e+06,0.488611,33.39,-0.01,0.565,-0.001667,0.0533789,0.346015,0.00533538,0.653985,0.682612,0.477778,0.55341,0.197275,0.2369,0.239569,0.267167,2026-10-01 05:08:24,120,5.2,0.228571,0,0,74.0203,0.425254,0,0.0869565,0.695652,0.173913,0.0434783,0,-1,-1,0.116842
Green_YC310_Pro_5B88_261001_051024.csv,1,111,37,3,84753.9,0.299016,5.41419e+06,0.482838,33.39,0,0.565,1.11022e-16,0.0553935,0.380749,0.00201456,0.619251,0.687084,0.493037,0.557882,0.193121,0.237777,0.24066,0.268258,2026-10-01 05:10:24,120,5.2,0.228571,0,0,80.786,0.509825,0,0.111111,0.62963,0.185185,0.0740741,0,-1,-1,0.10875
Green_YC310_Pro_5B88_261001_051224.csv,1,112,40,4,47037.9,0.148152,5.79962e+06,0.559925,33.43,0.04,0.571667,0.00666667,0.0472655,0.240612,-0.008128,0.759388,0.65837,0.49006,0.554905,0.188966,0.240757,0.218164,0.245762,2026-10-01 05:12:24,120,5.2,0.228571,0,0,84.8656,0.56082,0,0.346154,0.538462,0.0769231,0.0384615,0,-1,-1,0.12
Green_YC310_Pro_5B88_261001_051424.csv,1,113,36,6,29729.1,0.0789164,4.93285e+06,0.38657,33.47,0.04,0.578333,0.00666633,0.0539893,0.35654,0.00672384,0.64346,0.596472,0.463887,0.528733,0.144597,0.252228,0.178524,0.206122,2026-10-01 05:14:24,120,5.2,0.228571,0,0,75.8427,0.448034,0,0.133333,0.666667,0.133333,0.0666667,0,-1,-1,0.133913
Green_YC310_Pro_5B88_261001_051623.csv,1,114,29,3,51476.8,0.165907,4.54901e+06,0.309801,33.5,0.03,0.583333,0.00500033,0.0661637,0.566443,0.0121744,0.433557,0.576849,0.438737,0.509109,0.112675,0.260545,0.168885,0.196483,2026-10-01 05:16:23,119,5.2,0.228571,0,0,61.7459,0.271824,0,0.176471,0.294118,0.411765,0.117647,0,-1,-1,0.170909
Green_YC310_Pro_5B88_261001_051823.csv,1,115,36,10,24786.8,0.0591473,4.62513e+06,0.325025,33.42,-0.08,0.57,-0.013333,0.0599424,0.45918,-0.00622127,0.54082,0.557226,0.462019,0.532391,0.0932026,0.260453,0.155666,0.183264,2026-10-01 05:18:23,120,5.2,0.228571,0,0,78.0911,0.476139,0,0.0769231,0.615385,0.153846,0.153846,0,-1,-1,0.121053
Green_YC310_Pro_5B88_261001_052023.csv,1,116,40,16,15124.6,0.0204983,4.61436e+06,0.322872,33.33,-0.09,0.555,-0.015,0.0518181,0.319105,-0.00812433,0.680895,0.606616,0.506705,0.577077,0.0504312,0.264755,0.183145,0.210743,2026-10-01 05:20:23,120,5.2,0.228571,0,0,84.5666,0.557082,0,0.103448,0.758621,0.137931,0,0,-1,-1,0.120714
Green_YC310_Pro_5B88_261001_052226.csv,1,117,37,12,19398.1,0.0375925,4.55727e+06,0.311455,33.29,-0.04,0.548333,-0.00666667,0.0525234,0.331265,0.000705295,0.668735,0.656006,0.517807,0.58818,0.0297782,0.267015,0.218013,0.245611,2026-10-01 05:22:26,123,5.4,0.242857,0,0,79.8561,0.498201,0,0.137931,0.724138,0.137931,0,0,-1,-1,0.12
Green_YC310_Pro_5B88_261001_052423.csv,1,118,39,23,15857.4,0.0234295,4.4999e+06,0.29998,33.23,-0.06,0.538333,-0.00999967,0.0547053,0.368884,0.0021819,0.631116,0.648423,0.510879,0.581252,0.0336249,0.263049,0.219753,0.247351,2026-10-01 05:24:23,117,5.4,0.242857,0,0,81.4196,0.517745,0,0.138889,0.75,0.0833333,0.0277778,0,-1,-1,0.123684
Green_YC310_Pro_5B88_261001_052624.csv,1,119,37,6,22512,0.0500481,4.52154e+06,0.304307,33.21,-0.02,0.535,-0.003333,0.0531375,0.341854,-0.00156778,0.658146,0.642921,0.51899,0.589362,0.0406147,0.260522,0.215773,0.243371,2026-10-01 05:26:24,121,5.4,0.242857,0,0,80.786,0.509825,0,0.0740741,0.814815,0.111111,0,0,-1,-1,0.132593
Green_YC310_Pro_5B88_261001_052823.csv,1,120,39,11,22217.5,0.0488701,4.62625e+06,0.325251,33.22,0.01,0.536667,0.00166667,0.0551019,0.375722,0.00196439,0.624278,0.672346,0.5294,0.599772,0.0483665,0.259411,0.233523,0.261121,2026-10-01 05:28:23,119,5.4,0.242857,0,0,82.2785,0.528481,0,0.181818,0.515152,0.212121,0.0909091,0,-1,-1,0.122609
Green_YC310_Pro_5B88_261001_053023.csv,1,121,39,15,21545.3,0.0461814,4.94673e+06,0.389347,33.24,0.02,0.54,0.003333,0.0459144,0.217317,-0.0091875,0.782683,0.70348,0.542755,0.613128,0.0470776,0.260734,0.252335,0.279933,2026-10-01 05:30:23,120,5.4,0.242857,0,0,83.9914,0.549893,0,0.264706,0.735294,0,0,0,-1,-1,0.117222
Green_YC310_Pro_5B88_261001_053226.csv,1,122,35,4,31655.7,0.0866229,4.57407e+06,0.314814,33.25,0.01,0.541667,0.00166667,0.0571415,0.410889,0.0112271,0.589111,0.70348,0.5027,0.573073,0.148532,0.239836,0.252216,0.279814,2026-10-01 05:32:26,123,5.4,0.242857,0,0,75.8671,0.448339,0,0,0.75,0.214286,0.0357143,0,-1,-1,0.121667
Green_YC310_Pro_5B88_261001_053425.csv,1,123,28,2,29920.7,0.0796828,4.93282e+06,0.386565,33.28,0.03,0.546667,0.00499967,0.0597401,0.455691,0.0025986,0.544309,0.70348,0.549893,0.620265,0.0461814,0.263025,0.255617,0.283215,2026-10-01 05:34:25,119,5.4,0.242857,0,0,66.5083,0.331354,0,0.0740741,0.666667,0.111111,0.148148,0,-1,-1,0.119048
Green_YC310_Pro_5B88_261001_053624.csv,1,124,34,6,28100.8,0.0724031,4.71402e+06,0.342803,33.27,-0.01,0.545,-0.001667,0.0588731,0.440743,-0.000866979,0.559257,0.700323,0.531787,0.617107,0.113126,0.248363,0.248117,0.275715,2026-10-01 05:36:24,119,5.4,0.242857,0,0,72.1358,0.401698,0,0.111111,0.592593,0.148148,0.148148,0,-1,-1,0.125556
Green_YC310_Pro_5B88_261001_053823.csv,1,125,30,5,71754,0.247016,4.6782e+06,0.335641,33.26,-0.01,0.543333,-0.00166667,0.0495117,0.27934,-0.0093614,0.72066,0.694007,0.520714,0.610792,0.132547,0.243737,0.240374,0.267972,2026-10-01 05:38:23,119,5.4,0.242857,0,0,79.646,0.495575,0,0.25,0.541667,0.208333,0,0,-1,-1,0.104615
Green_YC310_Pro_5B88_261001_054024.csv,1,126,39,3,19374.8,0.0374991,4.89269e+06,0.378538,33.32,0.06,0.553333,0.0100003,0.0470133,0.236263,-0.00249843,0.763737,0.692228,0.509641,0.609013,0.0920559,0.25544,0.229521,0.257119,2026-10-01 05:40:24,121,5.4,0.242857,0,0,81.4763,0.518454,0,0.357143,0.571429,0.0357143,0.0357143,0,-1,-1,0.0990909
Green_YC310_Pro_5B88_261001_054227.csv,1,127,38,7,21552.3,0.0462093,4.93891e+06,0.387783,33.36,0.04,0.56,0.006667,0.0554114,0.381059,0.00839813,0.618941,0.691339,0.521081,0.620452,0.0418542,0.268143,0.230326,0.257924,2026-10-01 05:42:27,123,5.4,0.242857,0,0,81.8966,0.523708,0,0.148148,0.592593,0.185185,0.0740741,0,-1,-1,0.121
