Sheet Name,Segment,Index,total_beat_count,Sel_Min,diff,diff_n,mean,mean_n,temp,temp_raw_diff,temp_n,temp_diff,rise_low,rise_low_n,rise_low_diff,rise_low_n_inv,rise_low_n_inv_center,HR_n_center,HR_n_center_lim,diff_n_center,diff_anker,rl_inv_corr,inv_corr,datetime,time_gap_seconds,CGM,CGM_n,SMBG,SMBG_n,HR,HR_n,r20,r40,r60,r80,r100,time_gap_state,time_gap_slot,time_gap_offset_s,rise_low_50
Green_YC310_Pro_5B88_260929_193531.csv,1,1,40,14,26925.4,0.0677016,5.37762e+06,0.475524,33.2,0,0.533333,0,0.0494444,0.27818,0,0.72182,0.72182,0.539501,0.539501,0.0677016,0.254277,0.311126,0.285714,2026-09-29 19:35:31,0,5.4,0.242857,6,0.285714,83.1601,0.539501,0,0.527778,0.472222,0,0,1,0,0,0.1
Green_YC310_Pro_5B88_260929_193748.csv,1,2,40,11,27919.1,0.0716763,5.37884e+06,0.475768,33.2,0,0.533333,3.33333e-07,0.050625,0.298534,0.0011806,0.701466,0.667122,0.544058,0.544058,0.0784866,0.252,0.311126,0.287991,2026-09-29 19:37:48,137,5.4,0.242857,0,0,85.7756,0.572195,0.03125,0.4375,0.5,0.03125,0,1,1,0,0.101538
Green_YC310_Pro_5B88_260929_194008.csv,1,3,38,21,32317.9,0.0892716,5.48028e+06,0.496056,33.22,0.02,0.536667,0.00333367,0.0557895,0.387577,0.00516447,0.612423,0.666802,0.549752,0.549752,0.0769656,0.253372,0.309633,0.285126,2026-09-29 19:40:08,140,5.3,0.235714,0,0,79.3872,0.49234,0,0.236842,0.736842,0.0263158,0,1,2,0,0.10625
Green_YC310_Pro_5B88_260929_194227.csv,1,4,42,14,25784.6,0.0631385,5.41886e+06,0.483771,33.34,0.12,0.556667,0.0199997,0.0495,0.279138,-0.0062895,0.720862,0.665305,0.575516,0.575516,0.0763412,0.25981,0.295722,0.264778,2026-09-29 19:42:27,139,5.4,0.242857,0,0,91.3706,0.642132,0.025,0.5,0.45,0.025,0,1,3,0,0.0987097
Green_YC310_Pro_5B88_260929_194450.csv,1,5,38,20,29577.6,0.0783106,5.19629e+06,0.439258,33.4,0.06,0.566667,0.00999967,0.0578378,0.422894,0.00833784,0.577106,0.650056,0.569869,0.569869,0.0766134,0.262905,0.283433,0.249393,2026-09-29 19:44:50,143,5.7,0.264286,0,0,79.2217,0.490271,0,0.189189,0.756757,0.027027,0.027027,1,4,0,0.113939
Green_YC310_Pro_5B88_260929_194705.csv,1,6,40,13,32522.1,0.0900884,5.41288e+06,0.482576,33.48,0.08,0.58,0.013333,0.0527273,0.334781,-0.00511053,0.665219,0.634807,0.542016,0.55462,0.0801876,0.266354,0.277986,0.240497,2026-09-29 19:47:05,135,5.9,0.278571,0,0,84.4476,0.555595,0.0606061,0.333333,0.515152,0.0909091,0,1,5,0,0.104545
Green_YC310_Pro_5B88_260929_194929.csv,1,7,40,26,28465.3,0.0738611,5.35986e+06,0.471972,33.41,-0.07,0.568333,-0.0116667,0.0564103,0.39828,0.00368296,0.60172,0.633676,0.513368,0.553489,0.0899317,0.260618,0.27678,0.245026,2026-09-29 19:49:29,144,5.6,0.257143,0,0,84.686,0.558575,0,0.230769,0.717949,0.0512821,0,2,6,0,0.104444
Green_YC310_Pro_5B88_260929_195143.csv,1,8,35,10,40479,0.121916,5.35288e+06,0.470575,33.45,0.04,0.575,0.006667,0.06125,0.481724,0.0048397,0.518276,0.63523,0.512009,0.552129,0.101615,0.260253,0.276179,0.244791,2026-09-29 19:51:43,134,5.3,0.235714,0,0,75.1611,0.439514,0,0.0625,0.8125,0.125,0,2,7,0,0.113333
Green_YC310_Pro_5B88_260929_195404.csv,1,9,40,23,32191.4,0.0887658,5.15662e+06,0.431324,33.58,0.13,0.596667,0.0216667,0.0560976,0.392889,-0.00515244,0.607111,0.636784,0.537939,0.553683,0.0981431,0.267818,0.275346,0.236394,2026-09-29 19:54:04,141,5.3,0.235714,0,0,84.0925,0.551156,0.0243902,0.170732,0.780488,0.0243902,0,2,8,0,0.10973
Green_YC310_Pro_5B88_260929_195620.csv,1,10,43,14,33281.2,0.0931247,5.35227e+06,0.470454,33.57,-0.01,0.595,-0.001667,0.0526316,0.333131,-0.00346602,0.666869,0.637454,0.593706,0.554353,0.0907751,0.268848,0.281712,0.241729,2026-09-29 19:56:20,136,5.4,0.242857,0,0,90.9091,0.636364,0,0.394737,0.578947,0.0263158,0,2,9,0,0.104118
Green_YC310_Pro_5B88_260929_195840.csv,1,11,42,16,32021.4,0.0880854,5.3974e+06,0.47948,33.66,0.09,0.61,0.015,0.0547619,0.36986,0.0021303,0.63014,0.630403,0.617151,0.577798,0.107529,0.27004,0.277142,0.235968,2026-09-29 19:58:40,140,5.4,0.242857,0,0,88.5453,0.606816,0.047619,0.214286,0.690476,0.047619,0,2,10,0,0.103571
Green_YC310_Pro_5B88_260929_200058.csv,1,12,42,6,50205.5,0.160822,5.2563e+06,0.451259,33.75,0.09,0.625,0.015,0.054375,0.36319,-0.0003869,0.63681,0.614472,0.599536,0.561867,0.125062,0.271067,0.263434,0.221232,2026-09-29 20:00:58,138,5.2,0.228571,0,0,89.4886,0.618608,0.09375,0.28125,0.46875,0.125,0.03125,2,11,0,0.096
Green_YC310_Pro_5B88_260929_200320.csv,1,13,39,16,39338.6,0.117354,5.35583e+06,0.471165,33.84,0.09,0.64,0.015,0.0558824,0.389178,0.00150735,0.610822,0.597638,0.573183,0.545034,0.126278,0.275539,0.248334,0.20166,2026-09-29 20:03:20,142,5.3,0.235714,0,0,83.3333,0.541666,0.0294118,0.264706,0.617647,0.0588235,0.0294118,2,12,0,0.114286
Green_YC310_Pro_5B88_260929_200537.csv,1,14,39,15,32933.7,0.0917348,5.14194e+06,0.428388,33.76,-0.08,0.626667,-0.0133333,0.0589189,0.441533,0.00303652,0.558467,0.606012,0.595086,0.553407,0.104775,0.275876,0.257911,0.2109,2026-09-29 20:05:37,137,5.3,0.235714,0,0,82.2207,0.527759,0,0.189189,0.702703,0.0810811,0.027027,2,13,0,0.105
Green_YC310_Pro_5B88_260929_200755.csv,1,15,44,12,34077.9,0.0963117,5.33464e+06,0.466928,33.72,-0.04,0.62,-0.006667,0.0533333,0.34523,-0.00558557,0.65477,0.614385,0.616989,0.56178,0.0874911,0.277424,0.266156,0.217597,2026-09-29 20:07:55,138,5.4,0.242857,0,0,93.0889,0.663611,0,0.361111,0.611111,0.0277778,0,2,14,0,0.116923
Green_YC310_Pro_5B88_260929_201014.csv,1,16,45,14,31087.5,0.0843502,5.30933e+06,0.461867,33.66,-0.06,0.61,-0.01,0.0524324,0.329697,-0.000900868,0.670303,0.629423,0.615473,0.560265,0.0744269,0.27703,0.276423,0.228259,2026-09-29 20:10:14,139,5.3,0.235714,0,0,96.4975,0.706219,0.027027,0.351351,0.594595,0.027027,0,2,15,0,0.100714
Green_YC310_Pro_5B88_260929_201232.csv,1,17,38,7,20654.7,0.0426188,4.49571e+06,0.299141,33.66,0,0.61,-5.55112e-16,0.0540741,0.358001,0.00164167,0.641999,0.644461,0.613958,0.558749,0.0561186,0.280896,0.284691,0.23266,2026-09-29 20:12:32,138,5.2,0.228571,0,0,81.1388,0.514235,0,0.296296,0.703704,0,0,2,16,0,0.14
Green_YC310_Pro_5B88_260929_201455.csv,1,18,32,1,56512.9,0.186052,5.05994e+06,0.411987,33.55,-0.11,0.591667,-0.0183333,0.0589474,0.442024,0.00487327,0.557976,0.625924,0.571559,0.540213,0.0670014,0.272817,0.273676,0.229724,2026-09-29 20:14:55,143,5.3,0.235714,0,0,69.8182,0.372728,0,0.473684,0.263158,0.105263,0.157895,2,17,0,0.101429
Green_YC310_Pro_5B88_260929_201713.csv,1,19,23,2,62289.6,0.209158,5.46979e+06,0.493959,33.45,-0.1,0.575,-0.016667,0.07125,0.654138,0.0123026,0.345862,0.614695,0.529159,0.528983,0.0401549,0.273231,0.266419,0.222053,2026-09-29 20:17:13,138,5.4,0.242857,0,0,67.0554,0.338193,0,0.125,0.4375,0.1875,0.25,2,18,0,0.138
Green_YC310_Pro_5B88_260929_201930.csv,1,20,44,16,16727.9,0.0269117,4.77844e+06,0.355689,33.34,-0.11,0.556667,-0.0183333,0.0519048,0.320599,-0.0193452,0.679401,0.601042,0.572947,0.572771,0.038923,0.267711,0.266883,0.228037,2026-09-29 20:19:30,137,5.5,0.25,0,0,91.6031,0.645039,0,0.404762,0.595238,0,0,2,19,0,0.100476
Green_YC310_Pro_5B88_260929_202152.csv,1,21,36,9,19422.8,0.0376911,4.26643e+06,0.253286,33.43,0.09,0.571667,0.0149997,0.0572414,0.41261,0.00533658,0.58739,0.621258,0.568301,0.568125,0.0443044,0.271304,0.274732,0.232293,2026-09-29 20:21:52,142,5.3,0.235714,0,0,83.5267,0.544084,0,0.206897,0.724138,0.0689655,0,2,20,0,0.1144
Green_YC310_Pro_5B88_260929_202408.csv,1,22,42,15,24074.8,0.0562991,4.84639e+06,0.369279,33.37,-0.06,0.561667,-0.0100003,0.0552632,0.378503,-0.00197824,0.621497,0.641473,0.585763,0.585586,0.0451307,0.267977,0.289824,0.250712,2026-09-29 20:24:08,136,5.2,0.228571,0,0,89.9358,0.624197,0,0.263158,0.710526,0.0263158,0,2,21,0,0.105333
Green_YC310_Pro_5B88_260929_202627.csv,1,23,41,9,17558.4,0.0302337,4.52632e+06,0.305263,33.39,0.02,0.565,0.003333,0.0509677,0.304444,-0.00429546,0.695556,0.672217,0.603224,0.603048,0.0451083,0.269032,0.308145,0.267978,2026-09-29 20:26:27,139,5.2,0.228571,0,0,87.1105,0.588881,0.0322581,0.419355,0.516129,0.0322581,0,2,22,0,0.1
Green_YC310_Pro_5B88_260929_202845.csv,1,24,40,13,23656.9,0.0546274,4.52127e+06,0.304254,33.41,0.02,0.568333,0.00333333,0.0518919,0.320377,0.000924192,0.679623,0.69069,0.618892,0.618716,0.0487921,0.269305,0.319413,0.278972,2026-09-29 20:28:45,138,5.2,0.228571,0,0,86.5801,0.582251,0.027027,0.405405,0.513514,0.0540541,0,2,23,0,0.0870968
Green_YC310_Pro_5B88_260929_203107.csv,1,25,91,27,25378.8,0.0615152,4.70071e+06,0.340142,33.22,-0.19,0.536667,-0.0316663,0.0503896,0.294476,-0.00150229,0.705524,0.69689,0.63456,0.624916,0.063724,0.256168,0.330808,0.303505,2026-09-29 20:31:07,142,5.6,0.257143,0,0,92.8571,0.660714,0.025974,0.454545,0.493506,0.025974,0,2,25,0,0.0877966
Green_YC310_Pro_5B88_260929_203107.csv,1,26,91,27,25378.8,0.0615152,4.70071e+06,0.340142,33.22,0,0.536667,-3.33333e-07,0.0503896,0.294476,1.03896e-08,0.705524,0.688606,0.645359,0.635716,0.0734149,0.254122,0.327264,0.302008,2026-09-29 20:31:07,0,5.4,0.242857,0,0,92.8571,0.660714,0.025974,0.454545,0.493506,0.025974,0,2,26,0,0.0877966
Green_YC310_Pro_5B88_260929_203544.csv,1,27,42,8,34303.6,0.0972142,4.97203e+06,0.394405,32.93,-0.29,0.488333,-0.0483337,0.0533333,0.34523,0.00294373,0.65477,0.684608,0.641207,0.631718,0.0838454,0.23668,0.334271,0.326456,2026-09-29 20:35:44,277,5.4,0.242857,0,0,89.172,0.61465,0,0.393939,0.545455,0.0606061,0,2,26,0,0.0973333
Green_YC310_Pro_5B88_260929_203802.csv,1,28,44,29,30226.8,0.0809072,5.2371e+06,0.447421,33,0.07,0.5,0.011667,0.0572093,0.412057,0.003876,0.587943,0.680609,0.640917,0.631428,0.0936466,0.238289,0.329669,0.320245,2026-09-29 20:38:02,138,5.6,0.257143,0,0,93.0889,0.663611,0,0.139535,0.860465,0,0,2,27,0,0.104762
Green_YC310_Pro_5B88_260929_204021.csv,1,29,42,13,38889.6,0.115558,5.30408e+06,0.460817,33.06,0.06,0.51,0.01,0.0562162,0.394935,-0.000993084,0.605065,0.681671,0.645584,0.63249,0.0978598,0.240552,0.328737,0.31705,2026-09-29 20:40:21,139,5.9,0.278571,0,0,89.7436,0.621795,0,0.324324,0.567568,0.0810811,0.027027,2,28,0,0.0980645
Green_YC310_Pro_5B88_260929_204239.csv,1,30,44,30,31760.8,0.087043,5.38872e+06,0.477744,33.14,0.08,0.523333,0.0133333,0.0506667,0.299253,-0.00554953,0.700747,0.701625,0.651346,0.638252,0.0971143,0.244913,0.337829,0.321781,2026-09-29 20:42:39,138,6.3,0.307143,0,0,93.6835,0.671044,0,0.466667,0.533333,0,0,2,29,0,0.0951111
Green_YC310_Pro_5B88_260929_204500.csv,1,31,45,29,29667.7,0.0786707,5.3774e+06,0.47548,33.31,0.17,0.551667,0.0283337,0.0502128,0.291427,-0.000453934,0.708573,0.694261,0.66139,0.648296,0.0986083,0.253531,0.329057,0.304391,2026-09-29 20:45:00,141,7.1,0.364286,0,0,94.4717,0.680896,0,0.489362,0.510638,0,0,2,30,0,0.0939535
Green_YC310_Pro_5B88_260929_204718.csv,1,32,43,19,40010.1,0.12004,5.38754e+06,0.477509,33.47,0.16,0.578333,0.0266663,0.0517391,0.317744,0.00152633,0.682256,0.686896,0.671434,0.65834,0.100076,0.261629,0.320619,0.287855,2026-09-29 20:47:18,138,7.7,0.407143,0,0,94.4363,0.680454,0,0.413043,0.586957,0,0,2,31,0,0.0962791
Green_YC310_Pro_5B88_260929_204942.csv,1,33,44,30,34365.1,0.0974604,5.37932e+06,0.475864,33.65,0.18,0.608333,0.0300003,0.0527273,0.334781,0.000988173,0.665219,0.697931,0.674341,0.661247,0.101517,0.270784,0.321093,0.279175,2026-09-29 20:49:42,144,8.5,0.464286,0,0,92.9577,0.661971,0,0.363636,0.636364,0,0,2,33,0,0.0959091
Green_YC310_Pro_5B88_260929_205156.csv,1,34,44,19,30748.4,0.0829937,5.41408e+06,0.482816,33.79,0.14,0.631667,0.0233337,0.0482927,0.258322,-0.00443462,0.741678,0.741678,0.689617,0.676523,0.0829937,0.282052,0.342475,0.289288,2026-09-29 20:51:56,134,8.7,0.478571,0,0,95.1694,0.689617,0,0.634146,0.317073,0.0487805,0,2,34,0,0.0788889
