Sheet Name,Segment,Index,total_beat_count,Sel_Min,diff,diff_n,mean,mean_n,temp,temp_raw_diff,temp_n,temp_diff,rise_low,rise_low_n,rise_low_diff,rise_low_n_inv,rise_low_n_inv_center,HR_n_center,HR_n_center_lim,diff_n_center,diff_anker,rl_inv_corr,inv_corr,datetime,time_gap_seconds,CGM,CGM_n,SMBG,SMBG_n,HR,HR_n,r20,r40,r60,r80,r100,time_gap_state,time_gap_slot,time_gap_offset_s,rise_low_50
Green_YC310_Pro_5B88_260930_123403.csv,1,1,42,20,11435.9,0.00574356,4.90323e+06,0.380645,32.99,0,0.498333,0,0.0454507,0.209323,0,0.790677,0.790677,0.647959,0.647959,0.00574356,0.256325,0.418604,0.428571,2026-09-30 12:34:03,0,8,0.428571,8,0.428571,91.8367,0.647959,0,0.452381,0.5,0,0.047619,0,-1,-1,0.0837838
Green_YC310_Pro_5B88_260930_123603.csv,1,2,41,10,24469,0.0578762,4.94786e+06,0.389572,32.98,-0.01,0.496667,-0.00166633,0.0477509,0.24898,0.00230016,0.75102,0.770077,0.637535,0.637535,0.0421659,0.248109,0.418227,0.428194,2026-09-30 12:36:03,120,8.1,0.435714,0,0,89.0014,0.612518,0,0.34375,0.59375,0.03125,0.03125,0,-1,-1,0.0978571
Green_YC310_Pro_5B88_260930_123806.csv,1,3,45,20,21791.9,0.0471677,5.47352e+06,0.494704,33.04,0.06,0.506667,0.00999967,0.0463833,0.225402,-0.0013676,0.774598,0.768535,0.652127,0.652127,0.0566177,0.24821,0.420489,0.430456,2026-09-30 12:38:06,123,8.2,0.442857,0,0,94.5378,0.681723,0,0.363636,0.636364,0,0,0,-1,-1,0.0937778
Green_YC310_Pro_5B88_260930_124003.csv,1,4,45,10,28564.8,0.0742592,5.24352e+06,0.448704,33.15,0.11,0.525,0.018333,0.0460707,0.220013,-0.000312564,0.779987,0.787226,0.665766,0.665766,0.0653167,0.252153,0.42728,0.437247,2026-09-30 12:40:03,117,8.2,0.442857,0,0,95.339,0.691738,0,0.405405,0.540541,0.0540541,0,0,-1,-1,0.0958621
Green_YC310_Pro_5B88_260930_124203.csv,1,5,43,31,26395.1,0.0655806,5.47337e+06,0.494674,33.27,0.12,0.545,0.02,0.0444986,0.192906,-0.00157212,0.807094,0.789379,0.686979,0.667919,0.0696853,0.257537,0.42447,0.434437,2026-09-30 12:42:03,120,8.3,0.45,0,0,92.2747,0.653434,0,0.560976,0.439024,0,0,0,-1,-1,0.0919048
Green_YC310_Pro_5B88_260930_124404.csv,1,6,44,16,28330.2,0.0733206,5.41339e+06,0.482679,33.33,0.06,0.555,0.01,0.0464286,0.226182,0.00192995,0.773818,0.809939,0.715767,0.688479,0.0673588,0.261181,0.433963,0.44393,2026-09-30 12:44:04,121,8.1,0.435714,0,0,94.7595,0.684494,0,0.368421,0.578947,0.0526316,0,0,-1,-1,0.09
Green_YC310_Pro_5B88_260930_124603.csv,1,7,47,18,24303.4,0.0572134,5.52331e+06,0.504663,33.39,0.06,0.565,0.01,0.0399785,0.114974,-0.00645008,0.885026,0.837535,0.703724,0.676436,0.0637377,0.265099,0.447426,0.457393,2026-09-30 12:46:03,119,7.9,0.421429,0,0,102.248,0.7781,0.0217391,0.608696,0.369565,0,0,0,-1,-1,0.0982353
Green_YC310_Pro_5B88_260930_124803.csv,1,8,45,12,26800.8,0.0672033,5.38424e+06,0.476847,33.47,0.08,0.578333,0.0133333,0.0415506,0.142079,0.00157211,0.857921,0.853762,0.691682,0.664394,0.0645806,0.269124,0.453854,0.463822,2026-09-30 12:48:03,120,7.5,0.392857,0,0,94.0111,0.675139,0.0238095,0.547619,0.428571,0,0,0,-1,-1,0.100606
Green_YC310_Pro_5B88_260930_125003.csv,1,9,42,22,26675.6,0.0667025,5.48568e+06,0.497135,33.57,0.1,0.595,0.016667,0.0436051,0.177502,0.00205452,0.822498,0.835722,0.657455,0.646354,0.0716628,0.272884,0.440443,0.45041,2026-09-30 12:50:03,120,7.5,0.392857,0,0,88.4211,0.605264,0.0243902,0.414634,0.536585,0.0243902,0,0,-1,-1,0.0947368
Green_YC310_Pro_5B88_260930_125203.csv,1,10,41,39,28416.5,0.073666,5.26522e+06,0.453043,33.56,-0.01,0.593333,-0.00166667,0.0431174,0.169094,-0.000487659,0.830906,0.825796,0.623228,0.636428,0.0810826,0.270369,0.435242,0.445209,2026-09-30 12:52:03,120,7.2,0.371429,0,0,88.6806,0.608507,0,0.404762,0.595238,0,0,0,-1,-1,0.097561
Green_YC310_Pro_5B88_260930_125415.csv,1,11,43,10,33865.7,0.0954626,5.42443e+06,0.484885,33.59,0.03,0.598333,0.00500033,0.043682,0.178827,0.000564576,0.821173,0.823984,0.662215,0.675414,0.0756055,0.273102,0.4332,0.443167,2026-09-30 12:54:15,132,7.3,0.378571,0,0,92.4731,0.655914,0.030303,0.393939,0.515152,0.0606061,0,0,-1,-1,0.0971429
Green_YC310_Pro_5B88_260930_125603.csv,1,12,44,17,31463.2,0.085853,5.39534e+06,0.479067,33.67,0.08,0.611667,0.0133337,0.0437575,0.180128,7.54527e-05,0.819872,0.809656,0.658883,0.672083,0.0701284,0.278463,0.422512,0.432479,2026-09-30 12:56:03,108,6.9,0.35,0,0,97.7778,0.722222,0,0.47619,0.5,0.0238095,0,0,-1,-1,0.0954286
Green_YC310_Pro_5B88_260930_125804.csv,1,13,42,22,21198.5,0.0447941,4.86141e+06,0.372282,33.72,0.05,0.62,0.008333,0.0455199,0.210515,0.00176239,0.789485,0.799254,0.655552,0.668751,0.0663699,0.281884,0.415023,0.42499,2026-09-30 12:58:04,121,6.8,0.342857,0,0,88.5453,0.606816,0,0.315789,0.657895,0.0263158,0,0,-1,-1,0.095
Green_YC310_Pro_5B88_260930_130003.csv,1,14,41,38,31046.8,0.0841873,5.37762e+06,0.475525,33.71,-0.01,0.618333,-0.00166667,0.0455825,0.211594,6.25643e-05,0.788406,0.810631,0.672944,0.680128,0.0728896,0.279982,0.421714,0.431681,2026-09-30 13:00:03,119,6.8,0.342857,0,0,87.1105,0.588881,0,0.571429,0.428571,0,0,0,-1,-1,0.092381
Green_YC310_Pro_5B88_260930_130202.csv,1,15,47,13,29597.4,0.0783895,5.33085e+06,0.466171,33.79,0.08,0.631667,0.0133337,0.0432856,0.171994,-0.00229687,0.828006,0.822007,0.667249,0.674432,0.0852348,0.281579,0.425422,0.43539,2026-09-30 13:02:02,119,6.9,0.35,0,0,101.952,0.7744,0.0238095,0.47619,0.47619,0.0238095,0,0,-1,-1,0.08375
Green_YC310_Pro_5B88_260930_130403.csv,1,16,43,10,31710.9,0.0868436,5.322e+06,0.4644,33.82,0.03,0.636667,0.00499967,0.0416847,0.144392,-0.00160089,0.855608,0.818615,0.638464,0.67104,0.0931277,0.281489,0.422544,0.432511,2026-09-30 13:04:03,121,7.1,0.364286,0,0,91.7496,0.64687,0.0277778,0.611111,0.361111,0,0,0,-1,-1,0.0851613
Green_YC310_Pro_5B88_260930_130603.csv,1,17,37,34,38537.4,0.11415,5.60208e+06,0.520416,33.83,0.01,0.638333,0.00166633,0.0435931,0.177295,0.00190841,0.822705,0.815224,0.560127,0.667648,0.106199,0.279254,0.422544,0.432511,2026-09-30 13:06:03,120,7.1,0.364286,0,0,80.2023,0.502529,0,0.5,0.5,0,0,0,-1,-1,0.0957895
Green_YC310_Pro_5B88_260930_130806.csv,1,18,38,29,39400.7,0.117603,5.61075e+06,0.522151,33.85,0.02,0.641667,0.00333367,0.0463693,0.225161,0.00277624,0.774839,0.816219,0.525829,0.633351,0.103754,0.280821,0.422544,0.432511,2026-09-30 13:08:06,123,7.1,0.364286,0,0,83.151,0.539387,0,0.384615,0.615385,0,0,0,-1,-1,0.0938462
Green_YC310_Pro_5B88_260930_131002.csv,1,19,39,33,35059,0.100236,5.63757e+06,0.527515,33.86,0.01,0.643333,0.00166633,0.0433035,0.172301,-0.00306584,0.827699,0.817214,0.54659,0.634346,0.101309,0.281863,0.422544,0.432511,2026-09-30 13:10:02,116,7.1,0.364286,0,0,81.761,0.522012,0,0.35,0.65,0,0,0,-1,-1,0.094359
Green_YC310_Pro_5B88_260930_131203.csv,1,20,45,21,31522.3,0.0860893,5.61485e+06,0.52297,33.86,0,0.643333,3.33333e-07,0.0414539,0.140412,-0.00184959,0.859588,0.831339,0.578369,0.648471,0.089615,0.284332,0.422544,0.432511,2026-09-30 13:12:03,121,7.1,0.364286,0,0,97.6845,0.721056,0.0227273,0.636364,0.318182,0.0227273,0,0,-1,-1,0.0855
Green_YC310_Pro_5B88_260930_131402.csv,1,21,42,20,30629.9,0.0825196,5.63161e+06,0.526323,33.9,0.04,0.65,0.006667,0.0439115,0.182784,0.0024576,0.817216,0.840371,0.574578,0.64468,0.0905492,0.286237,0.422544,0.432511,2026-09-30 13:14:02,119,6.6,0.328571,0,0,90.7781,0.634726,0.0227273,0.5,0.477273,0,0,0,-1,-1,0.0941463
Green_YC310_Pro_5B88_260930_131603.csv,1,22,38,8,32553.2,0.0902128,5.27242e+06,0.454483,33.84,-0.06,0.64,-0.01,0.0409972,0.132537,-0.00291435,0.867463,0.830113,0.572274,0.642376,0.0914835,0.282887,0.422544,0.432511,2026-09-30 13:16:03,121,6.6,0.328571,0,0,80.8511,0.510639,0.0434783,0.478261,0.478261,0,0,0,-1,-1,0.0745455
Green_YC310_Pro_5B88_260930_131802.csv,1,23,42,6,35429.4,0.101718,5.53259e+06,0.506519,33.83,-0.01,0.638333,-0.00166667,0.0467479,0.231688,0.00575072,0.768312,0.804143,0.589322,0.659424,0.108717,0.278722,0.422544,0.432511,2026-09-30 13:18:02,119,6.6,0.328571,0,0,90.6475,0.633094,0,0.444444,0.472222,0.0555556,0.0277778,0,-1,-1,0.0993103
Green_YC310_Pro_5B88_260930_132004.csv,1,24,41,6,43554.7,0.134219,5.42738e+06,0.485476,33.74,-0.09,0.623333,-0.0149997,0.0441858,0.187513,-0.00256214,0.812487,0.7995,0.61741,0.687512,0.110228,0.273674,0.422544,0.432511,2026-09-30 13:20:04,122,6.6,0.328571,0,0,86.4371,0.580464,0.0344828,0.37931,0.551724,0.0344828,0,0,-1,-1,0.103333
Green_YC310_Pro_5B88_260930_132204.csv,1,25,44,8,36277,0.105108,5.52929e+06,0.505859,33.64,-0.1,0.606667,-0.0166663,0.0446365,0.195285,0.000450728,0.804715,0.814435,0.638672,0.702446,0.111739,0.2681,0.422544,0.432511,2026-09-30 13:22:04,120,6.6,0.328571,0,0,92.9577,0.661971,0.027027,0.405405,0.540541,0.027027,0,0,-1,-1,0.096129
Green_YC310_Pro_5B88_260930_132404.csv,1,26,43,15,33972.7,0.0958909,5.63906e+06,0.527812,33.52,-0.12,0.586667,-0.0200003,0.0431181,0.169104,-0.00151844,0.830896,0.826102,0.682593,0.714113,0.0884081,0.26672,0.433046,0.443013,2026-09-30 13:24:04,120,6.4,0.314286,0,0,93.8865,0.673581,0,0.459459,0.540541,0,0,0,-1,-1,0.0816667
Green_YC310_Pro_5B88_260930_132603.csv,1,27,46,16,26056.4,0.0642255,5.47511e+06,0.495021,33.53,0.01,0.588333,0.00166633,0.0421556,0.152511,-0.000962452,0.847489,0.822156,0.680525,0.712045,0.0816982,0.268663,0.430504,0.440472,2026-09-30 13:26:03,119,6,0.285714,0,0,96.9782,0.712228,0,0.577778,0.422222,0,0,0,-1,-1,0.0947619
Green_YC310_Pro_5B88_260930_132805.csv,1,28,45,16,33115.2,0.0924609,5.78305e+06,0.55661,33.53,0,0.588333,3.33333e-07,0.044004,0.184379,0.00184839,0.815621,0.81821,0.678457,0.709977,0.0839567,0.268186,0.428296,0.438263,2026-09-30 13:28:05,122,5.8,0.271429,0,0,95.0704,0.68838,0,0.410256,0.589744,0,0,0,-1,-1,0.0856
Green_YC310_Pro_5B88_260930_133003.csv,1,29,43,32,31669.9,0.0866797,5.7811e+06,0.556219,33.58,0.05,0.596667,0.00833367,0.0454018,0.208479,0.00139778,0.791521,0.792703,0.650725,0.68447,0.0895592,0.26963,0.412365,0.422332,2026-09-30 13:30:03,118,5.6,0.257143,0,0,90.7811,0.634764,0,0.386364,0.613636,0,0,0,-1,-1,0.095122
Green_YC310_Pro_5B88_260930_133203.csv,1,30,42,16,33104.2,0.0924167,5.71053e+06,0.542106,33.58,0,0.596667,-3.33333e-07,0.0465939,0.229033,0.0011921,0.770967,0.78903,0.627203,0.680797,0.0865651,0.270263,0.410325,0.420292,2026-09-30 13:32:03,120,5.4,0.242857,0,0,90.3226,0.629032,0,0.435897,0.538462,0.025641,0,0,-1,-1,0.0987097
Green_YC310_Pro_5B88_260930_133405.csv,1,31,42,18,28686.8,0.0747471,5.66052e+06,0.532104,33.58,0,0.596667,-3.33333e-07,0.0447116,0.19658,-0.00188226,0.80342,0.791875,0.614237,0.667831,0.0804427,0.271555,0.411928,0.421895,2026-09-30 13:34:05,122,5.4,0.242857,0,0,89.4251,0.617814,0.0465116,0.418605,0.534884,0,0,0,-1,-1,0.0965854
Green_YC310_Pro_5B88_260930_133603.csv,1,32,41,28,29965,0.07986,5.85293e+06,0.570587,33.61,0.03,0.601667,0.00499967,0.0455078,0.210307,0.000796195,0.789693,0.800214,0.617637,0.67123,0.076011,0.274068,0.415595,0.425562,2026-09-30 13:36:03,118,5.4,0.242857,0,0,87.6693,0.595866,0,0.452381,0.547619,0,0,0,-1,-1,0.1
Green_YC310_Pro_5B88_260930_133804.csv,1,33,43,14,27394.3,0.0695771,4.74641e+06,0.349281,33.59,-0.02,0.598333,-0.00333367,0.0438631,0.18195,-0.00164468,0.81805,0.803516,0.622854,0.674532,0.07845,0.272502,0.418107,0.428074,2026-09-30 13:38:04,121,5.3,0.235714,0,0,91.4245,0.642806,0.0263158,0.342105,0.631579,0,0,0,-1,-1,0.0937143
Green_YC310_Pro_5B88_260930_134003.csv,1,34,42,25,33696.5,0.094786,4.71215e+06,0.34243,33.72,0.13,0.62,0.021667,0.0455904,0.21173,0.00172726,0.78827,0.801318,0.650751,0.702429,0.084513,0.278053,0.412523,0.42249,2026-09-30 13:40:03,119,5.1,0.221429,0,0,88.7949,0.609936,0.0238095,0.380952,0.571429,0.0238095,0,0,-1,-1,0.0955
Green_YC310_Pro_5B88_260930_134203.csv,1,35,47,9,29725.8,0.0789031,4.82157e+06,0.364313,33.8,0.08,0.633333,0.0133333,0.0442905,0.189319,-0.00129989,0.810681,0.796701,0.661621,0.713299,0.0902738,0.28104,0.407263,0.41723,2026-09-30 13:42:03,120,5,0.214286,0,0,99.2259,0.740324,0.0238095,0.452381,0.5,0.0238095,0,0,-1,-1,0.0870968
Green_YC310_Pro_5B88_260930_134402.csv,1,36,40,6,37125.8,0.108503,4.77952e+06,0.355903,33.65,-0.15,0.608333,-0.0249997,0.0462342,0.22283,0.00194367,0.77717,0.791221,0.634602,0.70782,0.0867024,0.273912,0.409214,0.419181,2026-09-30 13:44:02,119,5,0.214286,0,0,87.0196,0.587745,0,0.37037,0.592593,0.037037,0,0,-1,-1,0.136667
Green_YC310_Pro_5B88_260930_134604.csv,1,37,38,8,22725.1,0.0509003,4.37346e+06,0.274691,33.58,-0.07,0.596667,-0.0116663,0.044918,0.200137,-0.00131623,0.799863,0.799863,0.528881,0.602098,0.0509003,0.277794,0.416462,0.426429,2026-09-30 13:46:04,122,5,0.214286,0,0,82.3105,0.528881,0.0384615,0.384615,0.461538,0.115385,0,0,-1,-1,0.142667
