Sheet Name,Segment,Index,total_beat_count,Sel_Min,diff,diff_n,mean,mean_n,temp,temp_raw_diff,temp_n,temp_diff,rise_low,rise_low_n,rise_low_diff,rise_low_n_inv,rise_low_n_inv_center,HR_n_center,HR_n_center_lim,diff_n_center,diff_anker,rl_inv_corr,inv_corr,datetime,time_gap_seconds,CGM,CGM_n,SMBG,SMBG_n,HR,HR_n,r20,r40,r60,r80,r100,time_gap_state,time_gap_slot,time_gap_offset_s,rise_low_50
Green_YC310_Pro_5B88_260929_224901.csv,4,1,40,22,39843.6,0.119374,5.71119e+06,0.542238,34.28,0,0.713333,0,0.0507317,0.300374,0,0.699626,0.699626,0.591703,0.591703,0.119374,0.300119,0.37807,0.357143,2026-09-29 22:49:01,0,6.4,0.314286,0,0,87.3362,0.591703,0,0.463415,0.536585,0,0,0,-1,-1,0.094359
Green_YC310_Pro_5B88_260929_225023.csv,4,2,38,21,42460.7,0.129843,5.69687e+06,0.539374,34.3,0.02,0.716667,0.00333367,0.0547368,0.369428,0.00400514,0.630572,0.65964,0.532577,0.551716,0.134049,0.298071,0.380313,0.361434,2026-09-29 22:50:23,82,6.4,0.314286,0,0,81.1966,0.514958,0,0.315789,0.631579,0.0526316,0,0,-1,-1,0.0965714
Green_YC310_Pro_5B88_260929_225354.csv,4,3,37,36,48232.9,0.152931,5.75269e+06,0.550538,34.3,0,0.716667,-3.33333e-07,0.0489474,0.26961,-0.00578943,0.73039,0.648721,0.497156,0.540797,0.147089,0.295317,0.380313,0.364187,2026-09-29 22:53:54,211,6.1,0.292857,0,0,79.2857,0.491071,0,0.552632,0.447368,0,0,0,-1,-1,0.0978947
Green_YC310_Pro_5B88_260929_225724.csv,4,4,37,33,49623.4,0.158494,5.75667e+06,0.551335,34.34,0.04,0.723333,0.00666633,0.0526316,0.333131,0.00368418,0.666869,0.636484,0.465424,0.52856,0.160736,0.294538,0.368222,0.352875,2026-09-29 22:57:24,210,6,0.285714,0,0,78.8352,0.48544,0,0.368421,0.631579,0,0,0,-1,-1,0.0984211
Green_YC310_Pro_5B88_260929_230052.csv,4,5,35,34,52695.6,0.170782,5.70945e+06,0.541891,34.32,-0.02,0.72,-0.003333,0.0538889,0.354808,0.00125729,0.645192,0.624247,0.426175,0.516324,0.171553,0.291202,0.357205,0.345193,2026-09-29 23:00:52,208,6,0.285714,0,0,73.5809,0.419761,0,0.305556,0.694444,0,0,0,-1,-1,0.102222
Green_YC310_Pro_5B88_260929_230422.csv,4,6,33,27,56345.5,0.185382,5.95671e+06,0.591341,34.3,-0.02,0.716667,-0.00333333,0.0575758,0.418375,0.00368686,0.581625,0.61527,0.370582,0.507347,0.165373,0.291456,0.346001,0.333736,2026-09-29 23:04:22,210,5.9,0.278571,0,0,69.8659,0.373324,0,0.121212,0.878788,0,0,0,-1,-1,0.104706
Green_YC310_Pro_5B88_260929_230754.csv,4,7,31,23,46697.2,0.146789,5.01271e+06,0.402541,34.28,-0.02,0.713333,-0.00333367,0.0541935,0.360061,-0.00338225,0.639939,0.615196,0.336116,0.507273,0.159193,0.291711,0.342384,0.329865,2026-09-29 23:07:54,212,5.8,0.271429,0,0,65.493,0.318662,0,0.290323,0.709677,0,0,0,-1,-1,0.101875
Green_YC310_Pro_5B88_260929_231123.csv,4,8,31,26,46351.7,0.145407,4.99935e+06,0.399869,34.25,-0.03,0.708333,-0.00499967,0.0565517,0.400719,0.00235822,0.599281,0.613739,0.333864,0.505816,0.136391,0.294949,0.342291,0.326533,2026-09-29 23:11:23,209,5.6,0.257143,0,0,65.309,0.316362,0,0.172414,0.827586,0,0,0,-1,-1,0.100625
Green_YC310_Pro_5B88_260929_231454.csv,4,9,31,16,39244.5,0.116978,5.08269e+06,0.416539,34.2,-0.05,0.7,-0.008333,0.0555556,0.383544,-0.000996144,0.616456,0.608813,0.331611,0.503563,0.140422,0.29147,0.340922,0.328643,2026-09-29 23:14:54,211,5.6,0.257143,0,0,65.4469,0.318086,0,0.222222,0.777778,0,0,0,-1,-1,0.101935
Green_YC310_Pro_5B88_260929_231822.csv,4,10,32,27,50121.7,0.160487,5.38054e+06,0.476108,34.15,-0.05,0.691667,-0.00833333,0.0558621,0.388829,0.000306469,0.611171,0.610703,0.331894,0.503846,0.144454,0.287992,0.343682,0.334882,2026-09-29 23:18:22,208,5.6,0.257143,0,0,67.7488,0.34686,0,0.206897,0.793103,0,0,0,-1,-1,0.101818
Green_YC310_Pro_5B88_260929_232154.csv,4,11,31,29,52982.3,0.171929,5.58658e+06,0.517317,34.12,-0.03,0.686667,-0.00500033,0.05625,0.395517,0.0003879,0.604483,0.578142,0.332178,0.504129,0.156472,0.283877,0.326482,0.321796,2026-09-29 23:21:54,212,5.6,0.257143,0,0,66.6189,0.332736,0,0.1875,0.8125,0,0,0,-1,-1,0.104375
Green_YC310_Pro_5B88_260929_232525.csv,4,12,31,27,52059.2,0.168237,5.56315e+06,0.512629,34.09,-0.03,0.681667,-0.00500033,0.0567742,0.404555,0.000524194,0.595445,0.579919,0.325791,0.497743,0.16849,0.279763,0.327691,0.32712,2026-09-29 23:25:25,211,5.6,0.257143,0,0,65.3549,0.316936,0,0.16129,0.83871,0,0,0,-1,-1,0.101875
Green_YC310_Pro_5B88_260929_232853.csv,4,13,30,23,51263,0.165052,5.59147e+06,0.518294,34.05,-0.04,0.675,-0.006667,0.06,0.460172,0.0032258,0.539828,0.567347,0.309563,0.485171,0.169608,0.277425,0.319987,0.321753,2026-09-29 23:28:53,208,5.6,0.257143,0,0,64.5624,0.30703,0,0,1,0,0,0,-1,-1,0.106452
Green_YC310_Pro_5B88_260929_233223.csv,4,14,30,21,53820.6,0.175283,5.58581e+06,0.517162,34.02,-0.03,0.67,-0.005,0.06,0.460172,3.46945e-17,0.539828,0.569979,0.315459,0.487803,0.168744,0.276031,0.323186,0.326347,2026-09-29 23:32:23,210,5.6,0.257143,0,0,64.3777,0.304721,0,0,1,0,0,0,-1,-1,0.105161
Green_YC310_Pro_5B88_260929_233557.csv,4,15,31,27,49701.4,0.158806,5.58812e+06,0.517623,33.99,-0.03,0.665,-0.005,0.057931,0.424501,-0.00206897,0.575499,0.580595,0.321355,0.493699,0.165898,0.275055,0.330857,0.334993,2026-09-29 23:35:57,214,5.6,0.257143,0,0,66.6189,0.332736,0,0.103448,0.896552,0,0,0,-1,-1,0.10625
Green_YC310_Pro_5B88_260929_233923.csv,4,16,32,25,49127.9,0.156512,5.82506e+06,0.565012,33.95,-0.04,0.658333,-0.00666667,0.0571429,0.410911,-0.000788143,0.589089,0.582294,0.332293,0.495398,0.166327,0.272863,0.334488,0.340817,2026-09-29 23:39:23,206,5.6,0.257143,0,0,67.0391,0.337989,0,0.142857,0.857143,0,0,0,-1,-1,0.102424
Green_YC310_Pro_5B88_260929_234253.csv,4,17,31,23,54142.7,0.176571,6.07375e+06,0.614751,33.93,-0.02,0.655,-0.003333,0.057931,0.424501,0.000788134,0.575499,0.587727,0.344309,0.500831,0.157976,0.273575,0.339677,0.345293,2026-09-29 23:42:53,210,5.6,0.257143,0,0,67.0029,0.337536,0,0.103448,0.896552,0,0,0,-1,-1,0.105625
Green_YC310_Pro_5B88_260929_234623.csv,4,18,33,27,40562.8,0.122251,5.04265e+06,0.40853,33.89,-0.04,0.648333,-0.00666667,0.0558824,0.389178,-0.00204865,0.610822,0.590628,0.347882,0.503732,0.137941,0.275704,0.343074,0.346562,2026-09-29 23:46:23,210,5.6,0.257143,0,0,69.1341,0.364176,0,0.205882,0.794118,0,0,0,-1,-1,0.103636
Green_YC310_Pro_5B88_260929_234953.csv,4,19,31,25,42673.2,0.130693,5.00961e+06,0.401922,33.84,-0.05,0.64,-0.008333,0.0585185,0.43463,0.00263612,0.56537,0.605844,0.365232,0.518948,0.124311,0.275955,0.355398,0.358634,2026-09-29 23:49:53,210,5.6,0.257143,0,0,66.0511,0.325639,0,0.0740741,0.925926,0,0,0,-1,-1,0.103125
Green_YC310_Pro_5B88_260929_235654.csv,4,20,33,31,41066.8,0.124267,4.98431e+06,0.396861,33.81,-0.03,0.635,-0.005,0.0517647,0.318185,-0.00675379,0.681815,0.634063,0.40588,0.547167,0.11999,0.275291,0.377204,0.381104,2026-09-29 23:56:54,421,5.6,0.257143,0,0,71.9477,0.399346,0,0.411765,0.588235,0,0,0,-1,-1,0.0982353
Green_YC310_Pro_5B88_260930_000023.csv,4,21,36,35,37321.8,0.109287,5.01225e+06,0.402449,33.76,-0.05,0.626667,-0.00833333,0.0508108,0.301738,-0.000953889,0.698262,0.635378,0.409308,0.548482,0.115889,0.273529,0.380029,0.385691,2026-09-30 00:00:23,209,5.6,0.257143,0,0,78.8897,0.486121,0,0.459459,0.540541,0,0,0,-1,-1,0.0961111
Green_YC310_Pro_5B88_260930_000353.csv,4,22,35,34,39597.6,0.118391,5.02968e+06,0.405935,33.72,-0.04,0.62,-0.006667,0.0538889,0.354808,0.00307809,0.645192,0.62476,0.412736,0.55191,0.113906,0.271846,0.375838,0.383183,2026-09-30 00:03:53,210,5.6,0.257143,0,0,74.6799,0.433499,0,0.305556,0.694444,0,0,0,-1,-1,0.102778
Green_YC310_Pro_5B88_260930_000723.csv,4,23,31,23,37388.6,0.109554,5.16381e+06,0.432763,33.72,0,0.62,-2.22045e-16,0.0564286,0.398596,0.00253967,0.601404,0.616513,0.390066,0.543663,0.113186,0.271998,0.368429,0.375622,2026-09-30 00:07:23,210,5.6,0.257143,0,0,67.148,0.33935,0,0.178571,0.821429,0,0,0,-1,-1,0.10625
Green_YC310_Pro_5B88_260930_001052.csv,4,24,32,26,38811.2,0.115245,5.10301e+06,0.420602,33.73,0.01,0.621667,0.00166667,0.0562963,0.396315,-0.000132304,0.603685,0.602944,0.367396,0.530093,0.107974,0.273624,0.357706,0.363273,2026-09-30 00:10:52,209,5.6,0.257143,0,0,67.5105,0.343881,0,0.185185,0.814815,0,0,0,-1,-1,0.103125
Green_YC310_Pro_5B88_260930_001424.csv,4,25,33,10,32962.9,0.0918517,5.11933e+06,0.423866,33.74,0.01,0.623333,0.00166633,0.05625,0.395517,-4.63e-05,0.604483,0.591556,0.360637,0.523335,0.102581,0.275288,0.350164,0.354067,2026-09-30 00:14:24,212,5.6,0.257143,0,0,71.6353,0.395441,0,0.1875,0.8125,0,0,0,-1,-1,0.101176
Green_YC310_Pro_5B88_260930_001753.csv,4,26,32,21,33818.7,0.0952749,5.11073e+06,0.422145,33.74,0,0.623333,3.33333e-07,0.0575,0.417069,0.00125,0.582931,0.580168,0.353878,0.516576,0.100648,0.275697,0.342955,0.346449,2026-09-30 00:17:53,209,5.6,0.257143,0,0,67.9406,0.349258,0,0.125,0.875,0,0,0,-1,-1,0.103636
Green_YC310_Pro_5B88_260930_002123.csv,4,27,31,24,38704.1,0.114816,5.02642e+06,0.405283,33.74,0,0.623333,3.33333e-07,0.0592308,0.44691,0.00173077,0.55309,0.558616,0.320979,0.495024,0.108698,0.273997,0.326836,0.332031,2026-09-30 00:21:23,210,5.6,0.257143,0,0,65.3549,0.316936,0,0.0384615,0.961538,0,0,0,-1,-1,0.104375
Green_YC310_Pro_5B88_260930_002455.csv,4,28,30,25,39000.6,0.116002,5.0134e+06,0.40268,33.73,-0.01,0.621667,-0.00166633,0.06,0.460172,0.0007692,0.539828,0.544249,0.31232,0.486365,0.116325,0.271861,0.318058,0.325388,2026-09-30 00:24:55,212,5.6,0.257143,0,0,63.7394,0.296743,0,0,1,0,0,0,-1,-1,0.109677
Green_YC310_Pro_5B88_260930_002823.csv,4,29,31,25,39539.1,0.118157,4.9866e+06,0.397319,33.74,0.01,0.623333,0.00166633,0.06,0.460172,4.16334e-17,0.539828,0.585418,0.308834,0.48288,0.119097,0.271801,0.34035,0.347741,2026-09-30 00:28:23,208,5.6,0.257143,0,0,65.5391,0.319239,0,0,1,0,0,0,-1,-1,0.109677
Green_YC310_Pro_5B88_260930_003154.csv,4,30,30,25,40782.8,0.123131,5.03013e+06,0.406026,33.74,0,0.623333,3.33333e-07,0.06,0.460172,2.77556e-17,0.539828,0.539828,0.310521,0.484567,0.119468,0.271723,0.315028,0.322496,2026-09-30 00:31:54,211,5.6,0.257143,0,0,64.5161,0.306451,0,0.037037,0.925926,0.037037,0,0,-1,-1,0.111613
Green_YC310_Pro_5B88_260930_003524.csv,4,31,30,25,39043.8,0.116175,5.10886e+06,0.421771,33.76,0.02,0.626667,0.00333367,0.06,0.460172,4.16334e-17,0.539828,0.539828,0.302835,0.47688,0.118782,0.272918,0.313415,0.319688,2026-09-30 00:35:24,210,5.6,0.257143,0,0,64.4699,0.305874,0,0,1,0,0,0,-1,-1,0.109032
Green_YC310_Pro_5B88_260930_003854.csv,4,32,30,24,39911.7,0.119647,5.12482e+06,0.424964,33.77,0.01,0.628333,0.00166633,0.06,0.460172,3.46945e-17,0.539828,0.54867,0.303228,0.477273,0.117038,0.273812,0.318081,0.32346,2026-09-30 00:38:54,210,5.6,0.257143,0,0,63.6943,0.296179,0,0,1,0,0,0,-1,-1,0.108387
Green_YC310_Pro_5B88_260930_004225.csv,4,33,31,23,38170.8,0.112683,5.09749e+06,0.419498,33.77,0,0.628333,3.33333e-07,0.0584615,0.433647,-0.00153846,0.566353,0.551617,0.296653,0.470699,0.119623,0.273266,0.318922,0.324847,2026-09-30 00:42:25,211,5.6,0.257143,0,0,64.8536,0.31067,0,0.0769231,0.923077,0,0,0,-1,-1,0.11
Green_YC310_Pro_5B88_260930_004553.csv,4,34,29,25,43370,0.13348,5.32328e+06,0.464655,33.75,-0.02,0.625,-0.003333,0.06,0.460172,0.0015385,0.539828,0.549432,0.293772,0.468514,0.119324,0.272278,0.318011,0.324923,2026-09-30 00:45:53,208,5.6,0.257143,0,0,61.5276,0.269095,0,0,1,0,0,0,-1,-1,0.11
Green_YC310_Pro_5B88_260930_004927.csv,4,35,31,22,34413.5,0.097654,5.37892e+06,0.475785,33.75,0,0.625,0,0.0593103,0.448282,-0.000689655,0.551718,0.542325,0.290507,0.465249,0.11388,0.273428,0.313629,0.319392,2026-09-30 00:49:27,214,5.6,0.257143,0,0,66.0981,0.326226,0,0.0344828,0.965517,0,0,0,-1,-1,0.104375
Green_YC310_Pro_5B88_260930_005252.csv,4,36,28,22,41682.7,0.126731,5.35723e+06,0.471445,33.75,0,0.625,0,0.0608,0.473966,0.0014897,0.526034,0.537661,0.274721,0.460585,0.105666,0.275162,0.309074,0.313103,2026-09-30 00:52:52,205,5.6,0.257143,0,0,59.2384,0.24048,0,0,0.96,0.04,0,0,-1,-1,0.112414
Green_YC310_Pro_5B88_260930_005623.csv,4,37,30,20,37162.8,0.108651,5.32648e+06,0.465296,33.75,0,0.625,0,0.06,0.460172,-0.0008,0.539828,0.53523,0.276155,0.462019,0.0926126,0.277919,0.307889,0.309161,2026-09-30 00:56:23,211,5.6,0.257143,0,0,63.3357,0.291696,0,0.0384615,0.923077,0.0384615,0,0,-1,-1,0.111333
Green_YC310_Pro_5B88_260930_005954.csv,4,38,37,13,24623.6,0.0584942,5.39946e+06,0.479893,33.76,0.01,0.626667,0.00166667,0.0557895,0.387577,-0.00421053,0.612423,0.554226,0.313951,0.481015,0.0933919,0.27828,0.322846,0.323757,2026-09-30 00:59:54,211,5.6,0.257143,0,0,79.8561,0.498201,0,0.263158,0.684211,0.0526316,0,0,-1,-1,0.10303
Green_YC310_Pro_5B88_260930_010322.csv,4,39,28,19,42267.2,0.129069,5.3863e+06,0.477259,33.77,0.01,0.628333,0.00166633,0.06,0.460172,0.0042105,0.539828,0.563623,0.345008,0.490412,0.102681,0.276844,0.331598,0.333945,2026-09-30 01:03:22,208,5.6,0.257143,0,0,61.5836,0.269795,0,0,1,0,0,0,-1,-1,0.107586
Green_YC310_Pro_5B88_260930_010654.csv,4,40,30,23,39529.8,0.118119,5.33911e+06,0.467821,33.77,0,0.628333,3.33333e-07,0.0592,0.446379,-0.0008,0.553621,0.563468,0.351663,0.497067,0.120481,0.273085,0.33233,0.338436,2026-09-30 01:06:54,212,5.6,0.257143,0,0,64.5624,0.30703,0,0.04,0.96,0,0,0,-1,-1,0.106452
Green_YC310_Pro_5B88_260930_011024.csv,4,41,30,25,38563.6,0.114255,5.30838e+06,0.461676,33.77,0,0.628333,3.33333e-07,0.0586207,0.436391,-0.00057931,0.563609,0.552293,0.328172,0.485892,0.115218,0.274196,0.32318,0.328175,2026-09-30 01:10:24,210,5.6,0.257143,0,0,64.0569,0.300711,0,0.0689655,0.931034,0,0,0,-1,-1,0.109032
Green_YC310_Pro_5B88_260930_011353.csv,4,42,31,23,38320.1,0.11328,5.62424e+06,0.524848,33.79,0.02,0.631667,0.00333367,0.0606667,0.471667,0.00204597,0.528333,0.528333,0.33214,0.489861,0.11328,0.275657,0.309585,0.313119,2026-09-30 01:13:53,209,5.6,0.257143,0,0,66.5712,0.33214,0,0.0333333,0.9,0.0666667,0,0,-1,-1,0.116774
