Sheet Name,Segment,Index,total_beat_count,Sel_Min,diff,diff_n,mean,mean_n,temp,temp_raw_diff,temp_n,temp_diff,rise_low,rise_low_n,rise_low_diff,rise_low_n_inv,rise_low_n_inv_center,HR_n_center,HR_n_center_lim,diff_n_center,diff_anker,rl_inv_corr,inv_corr,datetime,time_gap_seconds,CGM,CGM_n,SMBG,SMBG_n,HR,HR_n,r20,r40,r60,r80,r100,time_gap_state,time_gap_slot,time_gap_offset_s,rise_low_50
Green_YC310_Pro_5B88_260930_152352.csv,1,1,44,16,27015.2,0.068061,5.23975e+06,0.447951,32.91,0,0.485,0,0.0480011,0.253294,0,0.746706,0.746706,0.658708,0.658708,0.068061,0.238962,0.287498,0.25,2026-09-30 15:23:52,0,5.4,0.242857,5.5,0.25,92.6966,0.658708,0,0.3,0.675,0.025,0,0,-1,-1,0.101176
Green_YC310_Pro_5B88_260930_152552.csv,1,2,39,32,32452.6,0.0898103,5.21435e+06,0.44287,32.95,0.04,0.491667,0.00666667,0.0422679,0.154446,-0.0057332,0.845554,0.805194,0.60471,0.60471,0.0863585,0.2372,0.313409,0.275911,2026-09-30 15:25:52,120,5.4,0.242857,0,0,84.2939,0.553674,0,0.641026,0.358974,0,0,0,-1,-1,0.0921053
Green_YC310_Pro_5B88_260930_152753.csv,1,3,42,27,36164.1,0.104656,5.17169e+06,0.434338,33.05,0.1,0.508333,0.0166663,0.0441193,0.186368,0.00185143,0.813632,0.823322,0.60175,0.60175,0.090662,0.241546,0.314139,0.276641,2026-09-30 15:27:53,121,5.4,0.242857,0,0,88.9203,0.611504,0,0.463415,0.512195,0.0243902,0,0,-1,-1,0.0977143
Green_YC310_Pro_5B88_260930_152952.csv,1,4,44,23,30242.9,0.0809716,5.1279e+06,0.42558,33.16,0.11,0.526667,0.0183337,0.0442848,0.189221,0.000165525,0.810779,0.797499,0.59117,0.59117,0.0915356,0.247142,0.28712,0.249622,2026-09-30 15:29:52,119,5.4,0.242857,0,0,91.9861,0.649826,0,0.409091,0.568182,0.0227273,0,0,-1,-1,0.102326
Green_YC310_Pro_5B88_260930_153153.csv,1,5,39,19,33257.4,0.0930295,5.09982e+06,0.419964,33.27,0.11,0.545,0.018333,0.0467611,0.231915,0.0024763,0.768085,0.75332,0.580591,0.580591,0.0889792,0.253462,0.249379,0.21188,2026-09-30 15:31:53,121,5.6,0.257143,0,0,82.9787,0.537234,0,0.361111,0.611111,0.0277778,0,0,-1,-1,0.101212
Green_YC310_Pro_5B88_260930_153352.csv,1,6,38,18,34246.7,0.0969868,5.10129e+06,0.420258,33.31,0.04,0.551667,0.00666667,0.0518065,0.318905,0.0050454,0.681095,0.708089,0.594707,0.594707,0.0781204,0.257857,0.213501,0.176003,2026-09-30 15:33:52,119,5.9,0.278571,0,0,80.9084,0.511355,0,0.181818,0.69697,0.0606061,0.0606061,0,-1,-1,0.106429
Green_YC310_Pro_5B88_260930_153552.csv,1,7,39,9,22098.8,0.0483953,4.1869e+06,0.237379,33.35,0.04,0.558333,0.00666633,0.052155,0.324913,0.000348451,0.675087,0.73669,0.608824,0.608824,0.0765725,0.260286,0.229267,0.191769,2026-09-30 15:35:52,120,5.7,0.264286,0,0,82.6855,0.533569,0,0.294118,0.588235,0.0588235,0.0588235,0,-1,-1,0.1152
Green_YC310_Pro_5B88_260930_153757.csv,1,8,46,5,27398.8,0.0695951,4.38009e+06,0.276018,33.45,0.1,0.575,0.016667,0.0433502,0.173107,-0.00880479,0.826893,0.745872,0.631143,0.618007,0.0843355,0.263902,0.227644,0.190146,2026-09-30 15:37:57,125,5.4,0.242857,0,0,96.5035,0.706294,0.030303,0.454545,0.484848,0.030303,0,0,-1,-1,0.1
Green_YC310_Pro_5B88_260930_153953.csv,1,9,39,7,43753.9,0.135016,4.25915e+06,0.25183,33.5,0.05,0.583333,0.00833333,0.0533423,0.345384,0.00999208,0.654616,0.714907,0.653461,0.640325,0.127065,0.257506,0.199626,0.162128,2026-09-30 15:39:53,116,5.3,0.235714,0,0,82.9199,0.536499,0,0.25,0.607143,0.107143,0.0357143,0,-1,-1,0.101111
Green_YC310_Pro_5B88_260930_154153.csv,1,10,42,2,54145.7,0.176583,5.20316e+06,0.440632,33.56,0.06,0.593333,0.0100003,0.0493468,0.276497,-0.00399545,0.723503,0.681383,0.584259,0.606801,0.174659,0.250609,0.176429,0.138931,2026-09-30 15:41:53,120,5.3,0.235714,0,0,88.0503,0.600629,0,0.333333,0.518519,0.148148,0,0,-1,-1,0.102105
Green_YC310_Pro_5B88_260930_154353.csv,1,11,35,4,63094.5,0.212378,4.9355e+06,0.387101,33.64,0.08,0.606667,0.0133337,0.0531365,0.341836,0.0037897,0.658164,0.66603,0.510973,0.591448,0.216888,0.245896,0.151772,0.114274,2026-09-30 15:43:53,120,5.3,0.235714,0,0,77.6053,0.470066,0,0.136364,0.727273,0.0909091,0.0454545,0,-1,-1,0.105
Green_YC310_Pro_5B88_260930_154553.csv,1,12,36,7,75425.5,0.261702,4.99884e+06,0.399768,33.71,0.07,0.618333,0.0116663,0.0555575,0.383578,0.00242102,0.616422,0.618669,0.505408,0.585883,0.220513,0.248809,0.111777,0.0742786,2026-09-30 15:45:53,120,5.3,0.235714,0,0,76.9779,0.462224,0,0.115385,0.615385,0.269231,0,0,-1,-1,0.121333
Green_YC310_Pro_5B88_260930_154753.csv,1,13,38,6,55737.5,0.18295,5.15192e+06,0.430384,33.88,0.17,0.646667,0.0283337,0.0575876,0.41858,0.00203013,0.58142,0.646741,0.499843,0.580318,0.207062,0.260583,0.117077,0.0795788,2026-09-30 15:47:53,120,5.3,0.235714,0,0,79.8879,0.498599,0,0.166667,0.533333,0.166667,0.133333,0,-1,-1,0.121905
Green_YC310_Pro_5B88_260930_154955.csv,1,14,39,11,60161.2,0.200645,5.12823e+06,0.425645,33.93,0.05,0.655,0.008333,0.0483822,0.259866,-0.00920538,0.740134,0.668506,0.56807,0.602083,0.187846,0.267268,0.117077,0.0795788,2026-09-30 15:49:55,122,5.3,0.235714,0,0,83.0966,0.538707,0,0.36,0.6,0.04,0,0,-1,-1,0.102
Green_YC310_Pro_5B88_260930_155152.csv,1,15,44,12,51786.5,0.167146,5.18334e+06,0.436669,33.97,0.04,0.661667,0.00666667,0.0510324,0.305559,0.00265022,0.694441,0.683963,0.567523,0.601536,0.197639,0.267302,0.117077,0.0795788,2026-09-30 15:51:52,117,5.3,0.235714,0,0,93.3522,0.666902,0,0.21875,0.625,0.15625,0,0,-1,-1,0.1016
Green_YC310_Pro_5B88_260930_155354.csv,1,16,34,4,65828.3,0.223313,5.23225e+06,0.44645,34.14,0.17,0.69,0.028333,0.054898,0.372207,0.0038656,0.627793,0.693317,0.566976,0.600989,0.225126,0.270431,0.117077,0.0795788,2026-09-30 15:53:54,122,5.3,0.235714,0,0,75.2768,0.44096,0,0.259259,0.481481,0.148148,0.111111,0,-1,-1,0.0988235
Green_YC310_Pro_5B88_260930_155553.csv,1,17,36,4,80776.6,0.283106,5.05684e+06,0.411369,34.09,-0.05,0.681667,-0.00833333,0.0467547,0.231805,-0.00814329,0.768195,0.709922,0.528268,0.562282,0.248371,0.262895,0.117077,0.0795788,2026-09-30 15:55:53,119,5.3,0.235714,0,0,77.3639,0.467049,0,0.178571,0.785714,0.0357143,0,0,-1,-1,0.1144
Green_YC310_Pro_5B88_260930_155752.csv,1,18,44,5,69220.1,0.236881,4.73046e+06,0.346091,34.12,0.03,0.686667,0.00499967,0.0521306,0.324494,0.00537594,0.675506,0.714581,0.489561,0.523575,0.270709,0.259754,0.117077,0.0795788,2026-09-30 15:57:52,119,5.5,0.25,0,0,93.75,0.671875,0.08,0.24,0.44,0.24,0,0,-1,-1,0.144706
Green_YC310_Pro_5B88_260930_155954.csv,1,19,38,5,91492,0.325968,4.89604e+06,0.379208,34.01,-0.11,0.668333,-0.0183337,0.0484413,0.260884,-0.00368933,0.739116,0.717586,0.53698,0.52658,0.28707,0.250519,0.130466,0.0929675,2026-09-30 15:59:54,122,5.7,0.264286,0,0,80.9659,0.512074,0,0.333333,0.583333,0.0833333,0,0,-1,-1,0.122
Green_YC310_Pro_5B88_260930_160154.csv,1,20,39,6,74865.8,0.259463,5.05595e+06,0.411189,33.95,-0.06,0.658333,-0.00999967,0.0497469,0.283395,0.00130562,0.716605,0.724634,0.557806,0.533628,0.288935,0.246972,0.141652,0.104154,2026-09-30 16:01:54,120,5.7,0.264286,0,0,84.3547,0.554434,0,0.24,0.68,0.04,0.04,0,-1,-1,0.1
Green_YC310_Pro_5B88_260930_160352.csv,1,21,41,12,87711.7,0.310847,4.97333e+06,0.394666,33.88,-0.07,0.646667,-0.0116663,0.0491898,0.27379,-0.000557058,0.72621,0.71115,0.556865,0.532687,0.266972,0.247932,0.135612,0.0981134,2026-09-30 16:03:52,118,5.7,0.264286,0,0,88.5529,0.606911,0.03125,0.3125,0.4375,0.1875,0.03125,0,-1,-1,0.12
Green_YC310_Pro_5B88_260930_160552.csv,1,22,37,5,68469.4,0.233878,5.11781e+06,0.423562,33.9,0.02,0.65,0.003333,0.0521267,0.324425,0.00293688,0.675575,0.707671,0.555924,0.531746,0.230605,0.256662,0.13197,0.094472,2026-09-30 16:05:52,120,5.7,0.264286,0,0,81.3187,0.516484,0,0.333333,0.407407,0.259259,0,0,-1,-1,0.11875
Green_YC310_Pro_5B88_260930_160753.csv,1,23,38,3,47590.7,0.150363,5.27846e+06,0.455692,33.91,0.01,0.651667,0.00166667,0.0476172,0.246676,-0.00450947,0.753324,0.733513,0.587012,0.557588,0.229298,0.257464,0.152377,0.114878,2026-09-30 16:07:53,121,5.7,0.264286,0,0,80.3949,0.504936,0,0.3125,0.65625,0.03125,0,0,-1,-1,0.115833
Green_YC310_Pro_5B88_260930_160953.csv,1,24,44,5,56727.4,0.186909,5.33565e+06,0.467131,33.99,0.08,0.665,0.013333,0.0477038,0.248169,8.65967e-05,0.751831,0.769041,0.6181,0.588676,0.22799,0.261944,0.178709,0.141211,2026-09-30 16:09:53,120,5.6,0.257143,0,0,92.5018,0.656273,0,0.264706,0.647059,0.0882353,0,0,-1,-1,0.1
Green_YC310_Pro_5B88_260930_161152.csv,1,25,46,9,86404.3,0.305617,5.10086e+06,0.420172,33.95,-0.04,0.658333,-0.00666667,0.0437978,0.180824,-0.003906,0.819176,0.781429,0.619297,0.589873,0.235961,0.258159,0.189459,0.151961,2026-09-30 16:11:52,119,5.5,0.25,0,0,98.5011,0.731264,0.0714286,0.321429,0.607143,0,0,0,-1,-1,0.12
Green_YC310_Pro_5B88_260930_161352.csv,1,26,40,5,53569,0.174276,5.34334e+06,0.468668,33.91,-0.04,0.651667,-0.00666633,0.0486491,0.264467,0.00485127,0.735533,0.776458,0.620494,0.59107,0.281602,0.246419,0.188072,0.150574,2026-09-30 16:13:52,120,5.5,0.25,0,0,84.2105,0.552631,0,0.28125,0.65625,0.03125,0.03125,0,-1,-1,0.1008
Green_YC310_Pro_5B88_260930_161553.csv,1,27,36,4,128060,0.47224,5.10189e+06,0.420378,33.82,-0.09,0.636667,-0.0150003,0.0478078,0.249962,-0.00084128,0.750038,0.774666,0.592727,0.589278,0.311381,0.235401,0.18643,0.148932,2026-09-30 16:15:53,121,5.5,0.25,0,0,80.7779,0.509724,0,0.416667,0.416667,0.166667,0,0,-1,-1,0.0784615
Green_YC310_Pro_5B88_260930_161752.csv,1,28,42,12,40773,0.123092,5.3787e+06,0.47574,33.7,-0.12,0.616667,-0.0200003,0.0441096,0.1862,-0.00369817,0.8138,0.782327,0.564961,0.561512,0.287629,0.234111,0.193433,0.155935,2026-09-30 16:17:52,119,5.4,0.242857,0,0,88.4211,0.605264,0,0.371429,0.6,0.0285714,0,0,-1,-1,0.100714
Green_YC310_Pro_5B88_260930_161956.csv,1,29,42,10,35754.3,0.103017,5.46979e+06,0.493958,33.54,-0.16,0.59,-0.026667,0.0473161,0.241484,0.00320647,0.758516,0.786844,0.564119,0.56067,0.208527,0.242407,0.203643,0.166145,2026-09-30 16:19:56,124,5.4,0.242857,0,0,89.6159,0.620199,0,0.425,0.525,0,0.05,0,-1,-1,0.0972222
Green_YC310_Pro_5B88_260930_162152.csv,1,30,41,8,68733.4,0.234934,5.3854e+06,0.477079,33.57,0.03,0.595,0.005,0.0443217,0.189857,-0.00299438,0.810143,0.788215,0.563277,0.559828,0.161037,0.254011,0.203007,0.165508,2026-09-30 16:21:52,116,5.6,0.257143,0,0,87.9828,0.599785,0,0.482759,0.482759,0.0344828,0,0,-1,-1,0.1
Green_YC310_Pro_5B88_260930_162352.csv,1,31,38,6,27815.9,0.0712638,4.62368e+06,0.324736,33.48,-0.09,0.58,-0.015,0.043871,0.182086,-0.00045073,0.817914,0.817914,0.506356,0.502907,0.0712638,0.268239,0.224341,0.186843,2026-09-30 16:23:52,120,5.6,0.257143,0,0,80.5085,0.506356,0,0.434783,0.521739,0.0434783,0,0,-1,-1,0.09625
