Sheet Name,Segment,Index,total_beat_count,Sel_Min,diff,diff_n,mean,mean_n,temp,temp_raw_diff,temp_n,temp_diff,rise_low,rise_low_n,rise_low_diff,rise_low_n_inv,rise_low_n_inv_center,HR_n_center,HR_n_center_lim,diff_n_center,diff_anker,rl_inv_corr,inv_corr,datetime,time_gap_seconds,CGM,CGM_n,SMBG,SMBG_n,HR,HR_n,r20,r40,r60,r80,r100,time_gap_state,time_gap_slot,time_gap_offset_s,rise_low_50
Green_YC310_Pro_5B88_261001_113222.csv,4,1,28,4,17630.2,0.0305208,5.40842e+06,0.481683,32.33,0,0.388333,0,0.0422819,0.154687,0,0.845313,0.845313,0.647541,0.647541,0.0305208,0.216411,0.27703,0.25,2026-10-01 11:32:22,0,6.1,0.292857,0,0,91.8033,0.647541,0,0.666667,0.333333,0,0,0,-1,-1,0.0842105
Green_YC310_Pro_5B88_261001_113309.csv,4,2,30,10,12961.2,0.0118447,5.49714e+06,0.499428,32.35,0.02,0.391667,0.00333367,0.0443624,0.190559,0.00208053,0.809441,0.81406,0.678251,0.678251,0.0332054,0.216895,0.27703,0.25,2026-10-01 11:33:09,47,6,0.285714,0,0,98.6842,0.733553,0,0.464286,0.464286,0.0714286,0,0,-1,-1,0.0866667
Green_YC310_Pro_5B88_261001_113540.csv,4,3,26,8,29652.8,0.0786113,5.4138e+06,0.48276,32.28,-0.07,0.38,-0.011667,0.0459071,0.217192,0.00154472,0.782808,0.804786,0.653658,0.668976,0.0510812,0.209442,0.27703,0.25,2026-10-01 11:35:40,151,5.8,0.271429,0,0,89.7583,0.621979,0,0.375,0.625,0,0,0,-1,-1,0.0991667
Green_YC310_Pro_5B88_261001_113808.csv,4,4,26,24,22256.7,0.0490269,5.35418e+06,0.470836,32.52,0.24,0.42,0.04,0.0438956,0.182511,-0.00201146,0.817489,0.796672,0.638213,0.660862,0.0627877,0.219581,0.27703,0.25,2026-10-01 11:38:08,148,5.6,0.257143,0,0,88.4354,0.605442,0,0.444444,0.555556,0,0,0,-1,-1,0.0933333
Green_YC310_Pro_5B88_261001_114041.csv,4,5,26,15,21741,0.0469641,5.19538e+06,0.439077,32.72,0.2,0.453333,0.0333333,0.0467137,0.231099,0.00281814,0.768901,0.793195,0.573641,0.657385,0.0710439,0.228348,0.245333,0.218303,2026-10-01 11:40:41,153,5.7,0.264286,0,0,85.8086,0.572607,0,0.307692,0.692308,0,0,0,-1,-1,0.101739
Green_YC310_Pro_5B88_261001_114308.csv,4,6,24,11,35845.1,0.10338,5.56131e+06,0.512262,32.89,0.17,0.481667,0.0283337,0.0500928,0.289358,0.00337908,0.710642,0.795004,0.570495,0.654239,0.0730025,0.236868,0.227637,0.200608,2026-10-01 11:43:08,147,5.8,0.271429,0,0,83.4299,0.542874,0,0.333333,0.458333,0.166667,0.0416667,0,-1,-1,0.1
Green_YC310_Pro_5B88_261001_114542.csv,4,7,27,13,19571.5,0.0382858,5.18001e+06,0.436002,33.01,0.12,0.501667,0.0199997,0.0457384,0.214283,-0.0043544,0.785717,0.789034,0.567349,0.651093,0.0708132,0.243636,0.211635,0.184605,2026-10-01 11:45:42,154,6.1,0.292857,0,0,88.5246,0.606558,0,0.37037,0.62963,0,0,0,-1,-1,0.102308
Green_YC310_Pro_5B88_261001_114814.csv,4,8,26,4,29074.9,0.0762995,5.15494e+06,0.430987,33.08,0.07,0.513333,0.0116663,0.0457003,0.213625,-3.81485e-05,0.786375,0.783064,0.573024,0.656768,0.0707739,0.247322,0.201938,0.174908,2026-10-01 11:48:14,152,6.6,0.328571,0,0,87.346,0.591825,0,0.363636,0.545455,0.0909091,0,0,-1,-1,0.113684
Green_YC310_Pro_5B88_261001_115040.csv,4,9,27,7,35815.5,0.103262,5.16644e+06,0.433288,33.15,0.07,0.525,0.011667,0.0458745,0.216629,0.000174185,0.783371,0.795796,0.578699,0.662443,0.0779234,0.249491,0.205583,0.178553,2026-10-01 11:50:40,146,6.6,0.328571,0,0,87.2845,0.591056,0,0.347826,0.608696,0.0434783,0,0,-1,-1,0.102
Green_YC310_Pro_5B88_261001_115307.csv,4,10,26,6,24933.6,0.0597344,5.45431e+06,0.490863,33.27,0.12,0.545,0.02,0.0431663,0.169935,-0.00270825,0.830065,0.811939,0.584581,0.668325,0.0881994,0.253627,0.207996,0.180966,2026-10-01 11:53:07,147,6.6,0.328571,0,0,85.2459,0.565574,0,0.48,0.52,0,0,0,-1,-1,0.0936
Green_YC310_Pro_5B88_261001_115537.csv,4,11,26,15,26909.7,0.0676389,5.45113e+06,0.490225,33.44,0.17,0.573333,0.0283333,0.0446632,0.195744,0.00149687,0.804256,0.821851,0.590463,0.674207,0.101602,0.25973,0.203984,0.176954,2026-10-01 11:55:37,150,6.4,0.314286,0,0,87.9369,0.599211,0,0.346154,0.576923,0.0384615,0.0384615,0,-1,-1,0.0990909
Green_YC310_Pro_5B88_261001_115808.csv,4,12,24,8,45867.2,0.143469,5.47311e+06,0.494621,33.61,0.17,0.601667,0.0283337,0.0467787,0.232219,0.0021155,0.767781,0.83051,0.597636,0.68138,0.102749,0.268421,0.199804,0.172774,2026-10-01 11:58:08,151,6.2,0.3,0,0,80.089,0.501112,0,0.277778,0.722222,0,0,0,-1,-1,0.1
Green_YC310_Pro_5B88_261001_120039.csv,4,13,27,21,32109.1,0.0884365,5.40695e+06,0.481389,33.75,0.14,0.625,0.023333,0.0454093,0.208609,-0.00136939,0.791391,0.839169,0.613667,0.690039,0.103897,0.275536,0.199011,0.171982,2026-10-01 12:00:39,151,6.1,0.292857,0,0,88.5246,0.606558,0,0.296296,0.703704,0,0,0,-1,-1,0.097037
Green_YC310_Pro_5B88_261001_120309.csv,4,14,27,9,26081.3,0.0643254,5.43737e+06,0.487474,33.85,0.1,0.641667,0.0166667,0.0409897,0.132409,-0.00441956,0.867591,0.82894,0.623082,0.699454,0.0969572,0.282256,0.188081,0.161051,2026-10-01 12:03:09,150,6.1,0.292857,0,0,93.2106,0.665133,0,0.538462,0.461538,0,0,0,-1,-1,0.0854545
Green_YC310_Pro_5B88_261001_120545.csv,4,15,26,18,30997.8,0.0839913,5.44982e+06,0.489965,33.98,0.13,0.663333,0.0216663,0.042822,0.164,0.00183229,0.836,0.799101,0.612542,0.688913,0.0900172,0.290553,0.160541,0.133511,2026-10-01 12:05:45,156,6,0.285714,0,0,85.9978,0.574972,0.037037,0.592593,0.333333,0.037037,0,0,-1,-1,0.0936
Green_YC310_Pro_5B88_261001_120809.csv,4,16,27,7,38927.3,0.115709,5.37449e+06,0.474897,33.99,0.01,0.665,0.001667,0.0489346,0.269389,0.00611257,0.730611,0.778336,0.616294,0.692665,0.0924559,0.290564,0.145734,0.118704,2026-10-01 12:08:09,144,5.7,0.264286,0,0,90.8072,0.63509,0,0.285714,0.666667,0.047619,0,0,-1,-1,0.116471
Green_YC310_Pro_5B88_261001_121040.csv,4,17,27,12,27910.4,0.0716415,5.51229e+06,0.502458,34.05,0.06,0.675,0.01,0.0446029,0.194704,-0.00433174,0.805296,0.769609,0.62566,0.702031,0.0917234,0.293871,0.137174,0.110144,2026-10-01 12:10:40,151,5.7,0.264286,0,0,89.6018,0.620022,0.0344828,0.344828,0.586207,0.0344828,0,0,-1,-1,0.0992
Green_YC310_Pro_5B88_261001_121309.csv,4,18,27,8,31361.1,0.0854445,5.37548e+06,0.475096,34.09,0.04,0.681667,0.00666667,0.0485505,0.262767,0.00394756,0.737233,0.772273,0.612437,0.688808,0.0878198,0.296798,0.137048,0.110019,2026-10-01 12:13:09,149,5.7,0.264286,0,0,90.2004,0.627505,0,0.32,0.6,0.08,0,0,-1,-1,0.101739
Green_YC310_Pro_5B88_261001_121538.csv,4,19,25,15,35999.5,0.103998,5.43622e+06,0.487244,34.14,0.05,0.69,0.008333,0.044135,0.186638,-0.0044155,0.813362,0.78998,0.589784,0.666155,0.0896053,0.299048,0.146219,0.119189,2026-10-01 12:15:38,149,5.6,0.257143,0,0,82.0569,0.525711,0,0.32,0.64,0.04,0,0,-1,-1,0.100833
Green_YC310_Pro_5B88_261001_121808.csv,4,20,25,18,31271.9,0.0850874,5.31918e+06,0.463836,34.16,0.02,0.693333,0.00333333,0.0446762,0.195969,0.000541189,0.804031,0.807688,0.570509,0.646881,0.0913909,0.299722,0.157167,0.130137,2026-10-01 12:18:08,150,5.5,0.25,0,0,84.3645,0.554556,0,0.166667,0.833333,0,0,0,-1,-1,0.104167
Green_YC310_Pro_5B88_261001_122042.csv,4,21,25,1,60989.4,0.203958,5.57667e+06,0.515335,34.09,-0.07,0.681667,-0.0116663,0.0414259,0.139929,-0.00325032,0.860071,0.769509,0.540875,0.617247,0.14491,0.284742,0.157167,0.130137,2026-10-01 12:20:42,154,5.5,0.25,0,0,81.2568,0.51571,0,0.6,0.4,0,0,0,-1,-1,0.085
Green_YC310_Pro_5B88_261001_122309.csv,4,22,22,6,76138.9,0.264556,5.66877e+06,0.533755,33.97,-0.12,0.661667,-0.0200003,0.0537678,0.352721,0.0123419,0.647279,0.730731,0.549546,0.625918,0.188696,0.26919,0.157167,0.130137,2026-10-01 12:23:09,147,5.8,0.271429,0,0,81.0811,0.513514,0,0.133333,0.666667,0.2,0,0,-1,-1,0.14
Green_YC310_Pro_5B88_261001_122539.csv,4,23,24,3,49155.8,0.156623,5.29159e+06,0.458318,33.83,-0.14,0.638333,-0.0233337,0.0440398,0.184997,-0.00972798,0.815003,0.725953,0.558218,0.634589,0.191828,0.261172,0.165531,0.138501,2026-10-01 12:25:39,150,5.9,0.278571,0,0,84.408,0.5551,0,0.45,0.55,0,0,0,-1,-1,0.09
Green_YC310_Pro_5B88_261001_122815.csv,4,24,21,3,57377,0.189508,5.3876e+06,0.47752,33.92,0.09,0.653333,0.0150003,0.0549715,0.373475,0.0109317,0.626525,0.747417,0.617026,0.656053,0.170887,0.270323,0.165531,0.138501,2026-10-01 12:28:15,156,5.9,0.278571,0,0,88.4831,0.606039,0,0.266667,0.466667,0.133333,0.133333,0,-1,-1,0.0866667
Green_YC310_Pro_5B88_261001_123041.csv,4,25,28,3,46977,0.147908,5.56506e+06,0.513013,33.94,0.02,0.656667,0.00333367,0.0505659,0.297516,-0.00440556,0.702484,0.800723,0.674614,0.70936,0.161998,0.273251,0.165531,0.138501,2026-10-01 12:30:41,146,5.9,0.278571,0,0,95.7811,0.697264,0,0.333333,0.5,0.111111,0.0555556,0,-1,-1,0.0866667
Green_YC310_Pro_5B88_261001_123308.csv,4,26,29,3,50666.7,0.162667,5.58217e+06,0.516433,33.99,0.05,0.665,0.008333,0.0366602,0.0577626,-0.0139057,0.942237,0.907516,0.679187,0.713933,0.147826,0.278872,0.165531,0.138501,2026-10-01 12:33:08,147,5.9,0.278571,0,0,97.6431,0.720539,0.222222,0.444444,0.222222,0.111111,0,0,-1,-1,0.0555556
Green_YC310_Pro_5B88_261001_123539.csv,4,27,28,5,39505.1,0.11802,4.49222e+06,0.298444,33.91,-0.08,0.651667,-0.0133333,0.0363896,0.0530969,-0.000270583,0.946903,0.932219,0.68376,0.718506,0.132902,0.277819,0.165531,0.138501,2026-10-01 12:35:39,151,5.9,0.278571,0,0,93.2297,0.665371,0,0.666667,0.333333,0,0,0,-1,-1,0.068
Green_YC310_Pro_5B88_261001_123810.csv,4,28,26,5,75675.8,0.262703,5.16475e+06,0.432951,33.68,-0.23,0.613333,-0.0383337,0.0431139,0.169032,0.00672428,0.830968,0.94457,0.665371,0.700117,0.11802,0.268875,0.165531,0.138501,2026-10-01 12:38:10,151,6.1,0.292857,0,0,88.5358,0.606697,0,0.473684,0.473684,0.0526316,0,0,-1,-1,0.0854545
Green_YC310_Pro_5B88_261001_124038.csv,4,29,19,3,63087.7,0.212351,4.92336e+06,0.384672,33.36,-0.32,0.56,-0.053333,0.0453539,0.207654,0.00224001,0.792346,0.929499,0.665371,0.700117,0.11802,0.25206,0.165531,0.138501,2026-10-01 12:40:38,148,6.1,0.292857,0,0,64.9943,0.312429,0,0.416667,0.416667,0.166667,0,0,-1,-1,0.068
Green_YC310_Pro_5B88_261001_124309.csv,4,30,33,7,14685,0.01874,5.58461e+06,0.516922,33.18,-0.18,0.53,-0.03,0.0375078,0.0723757,-0.00784611,0.927624,0.899358,0.637995,0.672741,0.139566,0.238051,0.165531,0.138501,2026-10-01 12:43:09,151,6.1,0.292857,0,0,110.245,0.878063,0.1,0.6,0.3,0,0,0,-1,-1,0.0816
Green_YC310_Pro_5B88_261001_124538.csv,4,31,21,25,55664.6,0.182658,4.4023e+06,0.280461,33.17,-0.01,0.528333,-0.00166667,0.0417128,0.144876,0.00420502,0.855124,0.869231,0.621518,0.656264,0.142897,0.236822,0.139171,0.112141,2026-10-01 12:45:38,149,6.2,0.3,0,0,76.7357,0.459196,0.0555556,0.5,0.222222,0.222222,0,0,-1,-1,0.06
Green_YC310_Pro_5B88_261001_124809.csv,4,32,27,3,46433.9,0.145736,5.88848e+06,0.577697,32.89,-0.28,0.481667,-0.0466663,0.0453436,0.207476,0.0036308,0.792524,0.830395,0.592747,0.627493,0.146228,0.221405,0.128111,0.101082,2026-10-01 12:48:09,151,6.2,0.3,0,0,91.0112,0.63764,0,0.409091,0.590909,0,0,0,-1,-1,0.0933333
Green_YC310_Pro_5B88_261001_125040.csv,4,33,24,3,37572.3,0.110289,4.79165e+06,0.35833,32.67,-0.22,0.445,-0.036667,0.04742,0.243276,0.00207643,0.756724,0.785194,0.566701,0.601447,0.106542,0.218224,0.111499,0.0844691,2026-10-01 12:50:40,151,6.1,0.292857,0,0,80.089,0.501112,0,0.444444,0.444444,0.111111,0,0,-1,-1,0.0833333
Green_YC310_Pro_5B88_261001_125312.csv,4,34,27,4,25900.1,0.0636006,5.04339e+06,0.408678,32.49,-0.18,0.415,-0.03,0.0466033,0.229194,-0.000816721,0.770806,0.744322,0.55549,0.590236,0.286326,0.170801,0.141396,0.114366,2026-10-01 12:53:12,152,6.2,0.3,0,0,89.701,0.621262,0,0.380952,0.571429,0.047619,0,0,-1,-1,0.0854545
Green_YC310_Pro_5B88_261001_125539.csv,4,35,20,3,182209,0.688835,6.16846e+06,0.633692,32.25,-0.24,0.375,-0.04,0.0697386,0.628079,0.0231353,0.371921,0.705436,0.544096,0.578842,0.348974,0.144961,0.152006,0.124976,2026-10-01 12:55:39,147,6.1,0.292857,0,0,67.1892,0.339865,0,0.0769231,0.307692,0.307692,0.307692,0,-1,-1,0.092
Green_YC310_Pro_5B88_261001_125810.csv,4,36,23,4,35491.6,0.101966,5.56824e+06,0.513648,32.21,-0.04,0.368333,-0.00666667,0.0541862,0.359934,-0.0155524,0.640066,0.698565,0.540141,0.574887,0.294485,0.154365,0.154043,0.127013,2026-10-01 12:58:10,151,6,0.285714,0,0,77.3543,0.466929,0.0625,0.375,0.3125,0.125,0.125,0,-1,-1,0.0825
Green_YC310_Pro_5B88_261001_130039.csv,4,37,27,5,33163.6,0.0926545,5.81485e+06,0.56297,31.97,-0.24,0.328333,-0.0399997,0.0515405,0.31432,-0.00264565,0.68568,0.691693,0.536186,0.570932,0.084358,0.186124,0.301035,0.274005,2026-10-01 13:00:39,149,5.9,0.278571,0,0,87.6623,0.595779,0,0.15,0.7,0.15,0,0,-1,-1,0.104
Green_YC310_Pro_5B88_261001_130309.csv,4,38,26,7,24613.4,0.0584536,5.84823e+06,0.569645,31.85,-0.12,0.308333,-0.0199997,0.0481974,0.256679,-0.00334312,0.743321,0.7145,0.600611,0.593739,0.075554,0.181678,0.368517,0.341487,2026-10-01 13:03:09,150,5.7,0.264286,0,0,88.4354,0.605442,0,0.48,0.44,0,0.08,0,-1,-1,0.0954545
