Sheet Name,Segment,Index,total_beat_count,Sel_Min,diff,diff_n,mean,mean_n,temp,temp_raw_diff,temp_n,temp_diff,rise_low,rise_low_n,rise_low_diff,rise_low_n_inv,rise_low_n_inv_center,HR_n_center,HR_n_center_lim,diff_n_center,diff_anker,rl_inv_corr,inv_corr,datetime,time_gap_seconds,CGM,CGM_n,SMBG,SMBG_n,HR,HR_n,r20,r40,r60,r80,r100,time_gap_state,time_gap_slot,time_gap_offset_s,rise_low_50
Green_YC310_Pro_5B88_261001_151919.csv,2,1,16,1,30094,0.0803761,5.18945e+06,0.437891,31.67,0,0.278333,0,0.0615041,0.486105,0,0.513895,0.513895,0.204225,0.204225,0.0803761,0.1712,0.29114,0.285714,2026-10-01 15:19:19,0,5.6,0.257143,6,0.285714,56.338,0.204225,0,0.0833333,0.75,0.0833333,0.0833333,0,-1,-1,0.117778
Green_YC310_Pro_5B88_261001_152012.csv,2,2,32,13,6116.75,0,5.80693e+06,0.561387,31.8,0.13,0.3,0.021667,0.0407284,0.127903,-0.0150466,0.872097,0.513895,0.204225,0.204225,0.0803761,0.178032,0.29114,0.285714,2026-10-01 15:20:12,53,5.6,0.257143,0,0,104.348,0.80435,0.103448,0.62069,0.241379,0.0344828,0,0,-1,-1,0.0836364
Green_YC310_Pro_5B88_261001_152243.csv,2,3,27,6,9455.5,0,5.3655e+06,0.473099,32.09,0.29,0.348333,0.0483333,0.0388844,0.0961107,-0.00184398,0.903889,0.513895,0.204225,0.204225,0.0803761,0.193271,0.29114,0.285714,2026-10-01 15:22:43,151,5.7,0.264286,0,0,90.604,0.63255,0,0.666667,0.333333,0,0,0,-1,-1,0.0863158
Green_YC310_Pro_5B88_261001_152512.csv,2,4,20,2,29482,0.077928,5.4152e+06,0.483039,32.22,0.13,0.37,0.021667,0.060206,0.463725,0.0213216,0.536275,0.513895,0.514362,0.514362,0.0424623,0.208109,0.29114,0.285714,2026-10-01 15:25:12,149,5.7,0.264286,0,0,66.4452,0.330565,0,0.235294,0.352941,0.294118,0.117647,0,-1,-1,0.0833333
Green_YC310_Pro_5B88_261001_152745.csv,2,5,17,1,35074.2,0.100297,5.63362e+06,0.526725,32.27,0.05,0.378333,0.00833333,0.0558903,0.389315,-0.00431574,0.610685,0.513895,0.204225,0.204225,0.0803761,0.20273,0.29114,0.285714,2026-10-01 15:27:45,153,5.6,0.257143,0,0,62.1194,0.276492,0,0.181818,0.363636,0.363636,0.0909091,0,-1,-1,0.12
Green_YC310_Pro_5B88_261001_153013.csv,2,6,30,6,9613.67,0,5.07751e+06,0.415502,32.14,-0.13,0.356667,-0.0216663,0.0457301,0.214139,-0.00982165,0.785861,0.51877,0.410983,0.2091,0.0551002,0.201236,0.29114,0.285714,2026-10-01 15:30:13,148,5.7,0.264286,0,0,100.559,0.756987,0,0.4,0.6,0,0,0,-1,-1,0.088
Green_YC310_Pro_5B88_261001_153243.csv,2,7,32,8,11137.1,0.00454841,5.14883e+06,0.429767,31.96,-0.18,0.326667,-0.0300003,0.0421149,0.151809,-0.00395369,0.848191,0.53236,0.563817,0.22269,0.0579822,0.191169,0.29114,0.285714,2026-10-01 15:32:43,150,5.6,0.257143,0,0,105.96,0.8245,0,0.566667,0.433333,0,0,0,-1,-1,0.0872727
Green_YC310_Pro_5B88_261001_153512.csv,2,8,22,5,38574.5,0.114298,5.37352e+06,0.474705,31.97,0.01,0.328333,0.00166633,0.0591394,0.445335,0.0150512,0.554665,0.54339,0.607561,0.23372,0.0714671,0.188847,0.29114,0.285714,2026-10-01 15:35:12,149,5.2,0.228571,0,0,76.4774,0.455968,0.0625,0.25,0.375,0.1875,0.125,0,-1,-1,0.08
Green_YC310_Pro_5B88_261001_153742.csv,2,9,24,3,34091.7,0.0963666,5.22148e+06,0.444296,32.07,0.1,0.345,0.016667,0.0598077,0.456856,-0.0057913,0.543144,0.597773,0.542215,0.168374,0.095555,0.189015,0.29114,0.285714,2026-10-01 15:37:42,150,5.2,0.228571,0,0,85.8164,0.572705,0,0.272727,0.636364,0.0909091,0,0,-1,-1,0.084
Green_YC310_Pro_5B88_261001_154013.csv,2,10,26,5,29000.1,0.0760004,4.98632e+06,0.397264,32.24,0.17,0.373333,0.0283333,0.0503976,0.294614,-0.000977213,0.705386,0.69551,0.619734,0.245893,0.066381,0.204109,0.29114,0.285714,2026-10-01 15:40:13,151,4.9,0.207143,0,0,87.8378,0.597973,0,0.352941,0.470588,0.117647,0.0588235,0,-1,-1,0.08
Green_YC310_Pro_5B88_261001_154241.csv,2,11,29,5,16694,0.0267759,5.42213e+06,0.484425,32.42,0.18,0.403333,0.0300003,0.0421331,0.152123,-0.00826448,0.847877,0.739387,0.62365,0.249809,0.0896776,0.208648,0.29114,0.285714,2026-10-01 15:42:41,148,4.9,0.207143,0,0,95.082,0.688525,0,0.555556,0.444444,0,0,0,-1,-1,0.0894737
Green_YC310_Pro_5B88_261001_154513.csv,2,12,25,3,53969.1,0.175876,5.46974e+06,0.493947,32.61,0.19,0.435,0.031667,0.0537889,0.353085,0.0094964,0.646915,0.783264,0.627566,0.253724,0.10087,0.216269,0.29114,0.285714,2026-10-01 15:45:13,152,4.9,0.207143,0,0,83.9866,0.549832,0,0.368421,0.473684,0.105263,0.0526316,0,-1,-1,0.0866667
Green_YC310_Pro_5B88_261001_154742.csv,2,13,29,11,17088.5,0.0283541,5.19605e+06,0.439211,32.78,0.17,0.463333,0.0283333,0.0442813,0.18916,-0.00734824,0.81084,0.765279,0.644841,0.271,0.0999572,0.225395,0.274861,0.269435,2026-10-01 15:47:42,149,5.7,0.264286,0,0,96.3455,0.704319,0,0.448276,0.551724,0,0,0,-1,-1,0.104
Green_YC310_Pro_5B88_261001_155012.csv,2,14,30,13,16009.6,0.0240384,5.12596e+06,0.425191,32.84,0.06,0.473333,0.0100003,0.0452624,0.206076,0.000981105,0.793924,0.756122,0.664265,0.290424,0.0868535,0.231315,0.269142,0.263716,2026-10-01 15:50:12,150,5.7,0.264286,0,0,99.2282,0.740352,0,0.3,0.666667,0.0333333,0,0,-1,-1,0.103571
Green_YC310_Pro_5B88_261001_155243.csv,2,15,23,5,44141.2,0.136565,5.215e+06,0.442999,32.98,0.14,0.496667,0.0233337,0.0571234,0.410576,0.0102188,0.589424,0.741401,0.685837,0.311995,0.092861,0.237404,0.25772,0.252294,2026-10-01 15:52:43,151,6,0.285714,0,0,75.575,0.444688,0,0.263158,0.526316,0.157895,0.0526316,0,-1,-1,0.1
Green_YC310_Pro_5B88_261001_155512.csv,2,16,28,8,28568.9,0.0742755,5.20112e+06,0.440224,33.15,0.17,0.525,0.028333,0.0486394,0.264299,-0.00860512,0.735701,0.703633,0.627481,0.274227,0.128764,0.238756,0.218109,0.212682,2026-10-01 15:55:12,149,6.6,0.328571,0,0,91.9037,0.648796,0,0.571429,0.285714,0.0952381,0.047619,0,-1,-1,0.084
Green_YC310_Pro_5B88_261001_155744.csv,2,17,26,5,67484.5,0.229938,5.65512e+06,0.531024,33.36,0.21,0.56,0.035,0.0550519,0.37486,0.00817575,0.62514,0.677664,0.598603,0.248258,0.162345,0.2427,0.191012,0.185585,2026-10-01 15:57:44,152,6.9,0.35,0,0,90.5923,0.632404,0,0.1875,0.625,0.125,0.0625,0,-1,-1,0.115385
Green_YC310_Pro_5B88_261001_160015.csv,2,18,25,4,52132.1,0.168528,5.18929e+06,0.437858,33.54,0.18,0.59,0.03,0.0492789,0.275327,-0.00577296,0.724673,0.675774,0.58265,0.246368,0.182822,0.247835,0.183416,0.177989,2026-10-01 16:00:15,151,6.9,0.35,0,0,81.1688,0.51461,0.0625,0.375,0.375,0.1875,0,0,-1,-1,0.0825
Green_YC310_Pro_5B88_261001_160252.csv,2,19,26,5,47499.6,0.149999,5.23548e+06,0.447096,33.68,0.14,0.613333,0.0233333,0.0548507,0.371391,0.00256524,0.628609,0.686175,0.566697,0.230415,0.134371,0.265423,0.185375,0.179948,2026-10-01 16:02:52,157,6.8,0.342857,0,0,85.2459,0.565574,0,0.153846,0.615385,0.230769,0,0,-1,-1,0.12
Green_YC310_Pro_5B88_261001_160512.csv,2,20,27,5,31146.4,0.0845857,5.25464e+06,0.450928,33.84,0.16,0.64,0.026667,0.047067,0.23719,-0.00634529,0.76281,0.712639,0.547687,0.211404,0.142078,0.272203,0.196275,0.190849,2026-10-01 16:05:12,140,6.7,0.335714,0,0,89.5028,0.618785,0,0.52381,0.380952,0.0952381,0,0,-1,-1,0.0853333
Green_YC310_Pro_5B88_261001_160743.csv,2,21,25,5,51360.9,0.165444,5.1361e+06,0.42722,33.96,0.12,0.66,0.02,0.0479174,0.251851,0.00241856,0.748149,0.746498,0.528676,0.192393,0.149786,0.276881,0.214072,0.208645,2026-10-01 16:07:43,151,6.6,0.328571,0,0,83.0565,0.538206,0.0714286,0.357143,0.428571,0.142857,0,0,-1,-1,0.08
Green_YC310_Pro_5B88_261001_161012.csv,2,22,22,5,63746.6,0.214986,5.05344e+06,0.410689,34.07,0.11,0.678333,0.0183333,0.0561873,0.394437,0.00609557,0.605563,0.75283,0.551058,0.198725,0.147815,0.283078,0.218703,0.213277,2026-10-01 16:10:12,149,6.6,0.328571,0,0,75.0853,0.438566,0.0588235,0.235294,0.352941,0.235294,0.117647,0,-1,-1,0.18
Green_YC310_Pro_5B88_261001_161242.csv,2,23,29,3,29668,0.0786719,5.21119e+06,0.442238,34.16,0.09,0.693333,0.0150003,0.0459652,0.218194,-0.00968135,0.781806,0.729438,0.565497,0.213164,0.13381,0.290765,0.202594,0.197168,2026-10-01 16:12:42,150,6.6,0.328571,0,0,94.8746,0.685933,0,0.583333,0.416667,0,0,0,-1,-1,0.0886957
Green_YC310_Pro_5B88_261001_161512.csv,2,24,22,3,50727.7,0.162911,5.31949e+06,0.463898,34.22,0.06,0.703333,0.0100003,0.0551206,0.376045,0.0107889,0.623955,0.697776,0.534923,0.18259,0.123455,0.296104,0.177369,0.171943,2026-10-01 16:15:12,150,6.6,0.328571,0,0,76.1246,0.451558,0,0.352941,0.294118,0.235294,0.117647,0,-1,-1,0.14
Green_YC310_Pro_5B88_261001_161742.csv,2,25,26,5,43508,0.134032,5.15378e+06,0.430756,34.3,0.08,0.716667,0.0133337,0.0562857,0.396133,0.00116512,0.603867,0.68974,0.524537,0.174555,0.128781,0.299183,0.169139,0.163713,2026-10-01 16:17:42,150,6.6,0.328571,0,0,84.0517,0.550646,0,0.111111,0.666667,0.222222,0,0,-1,-1,0.121818
Green_YC310_Pro_5B88_261001_162013.csv,2,26,24,5,32350.1,0.0894005,5.05486e+06,0.410971,34.38,0.08,0.73,0.013333,0.0558005,0.387768,-0.000485158,0.612232,0.694155,0.595056,0.17897,0.104185,0.308581,0.17665,0.171224,2026-10-01 16:20:13,151,6.3,0.307143,0,0,83.6237,0.545296,0,0.25,0.5,0.125,0.125,0,-1,-1,0.085
Green_YC310_Pro_5B88_261001_162242.csv,2,27,30,21,23561.9,0.0542474,5.06218e+06,0.412436,34.47,0.09,0.745,0.015,0.0454454,0.209231,-0.0103551,0.790769,0.73466,0.683573,0.219475,0.0630356,0.322,0.209359,0.203933,2026-10-01 16:22:42,149,6.3,0.307143,0,0,99.1189,0.738986,0,0.516129,0.483871,0,0,0,-1,-1,0.0886667
Green_YC310_Pro_5B88_261001_162511.csv,2,28,29,27,21364.7,0.0454588,5.0677e+06,0.41354,34.5,0.03,0.75,0.005,0.0481076,0.255131,0.00266221,0.744869,0.775303,0.727073,0.260118,0.0593619,0.324352,0.240616,0.235189,2026-10-01 16:25:11,149,6,0.285714,0,0,96.882,0.711025,0,0.5,0.5,0,0,0,-1,-1,0.092
Green_YC310_Pro_5B88_261001_162743.csv,2,29,31,9,27397.9,0.0695914,5.20262e+06,0.440524,34.52,0.02,0.753333,0.00333333,0.0463818,0.225376,-0.00466609,0.774624,0.790272,0.731206,0.264252,0.0594135,0.325392,0.251194,0.245767,2026-10-01 16:27:43,152,6,0.285714,0,0,99.8926,0.748657,0,0.5,0.5,0,0,0,-1,-1,0.08875
Green_YC310_Pro_5B88_261001_163014.csv,2,30,30,21,23253.1,0.0530126,5.0645e+06,0.4129,34.58,0.06,0.763333,0.0100003,0.0428409,0.164325,-0.000600623,0.835675,0.78449,0.699585,0.25847,0.067824,0.326769,0.243034,0.237607,2026-10-01 16:30:14,151,6,0.285714,0,0,100.111,0.751388,0,0.580645,0.419355,0,0,0,-1,-1,0.0929032
Green_YC310_Pro_5B88_261001_163245.csv,2,31,27,5,33698.9,0.0947956,4.92455e+06,0.384911,34.58,0,0.763333,3.33333e-07,0.0491136,0.272476,0.00210217,0.727524,0.7816,0.667963,0.255579,0.0808679,0.324015,0.237366,0.231939,2026-10-01 16:32:45,151,6,0.285714,0,0,90.1001,0.626251,0,0.409091,0.545455,0.0454545,0,0,-1,-1,0.101
Green_YC310_Pro_5B88_261001_163513.csv,2,32,28,2,33982.7,0.0959307,5.44516e+06,0.489032,34.59,0.01,0.765,0.001667,0.0470437,0.236787,0.00210056,0.763213,0.7816,0.626251,0.213867,0.0947956,0.321599,0.232373,0.226947,2026-10-01 16:35:13,148,6.2,0.3,0,0,98.3607,0.729509,0,0.409091,0.545455,0.0454545,0,0,-1,-1,0.0842857
Green_YC310_Pro_5B88_261001_163742.csv,2,33,26,2,45046.6,0.140186,5.34568e+06,0.469137,34.61,0.02,0.768333,0.00333333,0.0516902,0.316901,0.00210392,0.683099,0.778033,0.670659,0.258275,0.0901295,0.323635,0.234685,0.229259,2026-10-01 16:37:42,149,6.3,0.307143,0,0,87.2483,0.590604,0,0.315789,0.578947,0.105263,0,0,-1,-1,0.0836364
Green_YC310_Pro_5B88_261001_164012.csv,2,34,31,5,30199.3,0.0807972,5.36657e+06,0.473313,34.52,-0.09,0.753333,-0.0149997,0.0397936,0.111787,-0.00935397,0.888213,0.797548,0.719205,0.27779,0.0683821,0.323498,0.254986,0.24956,2026-10-01 16:40:12,150,6.6,0.328571,0,0,100.758,0.759475,0,0.653846,0.346154,0,0,0,-1,-1,0.085
Green_YC310_Pro_5B88_261001_164242.csv,2,35,31,18,17388.4,0.0295536,5.72912e+06,0.545823,34.38,-0.14,0.73,-0.023333,0.0437587,0.180151,0.00396513,0.819849,0.821238,0.709297,0.267883,0.100629,0.309332,0.272276,0.266849,2026-10-01 16:42:42,150,6.7,0.335714,0,0,101.751,0.771888,0,0.53125,0.46875,0,0,0,-1,-1,0.0954839
Green_YC310_Pro_5B88_261001_164521.csv,2,36,29,3,40245,0.12098,5.73757e+06,0.547515,34.28,-0.1,0.713333,-0.0166667,0.0435271,0.176157,-0.000231594,0.823843,0.803884,0.69939,0.257976,0.132876,0.297268,0.260105,0.254679,2026-10-01 16:45:21,159,6.3,0.307143,0,0,93.9525,0.674406,0,0.571429,0.357143,0.0357143,0.0357143,0,-1,-1,0.09
Green_YC310_Pro_5B88_261001_164743.csv,2,37,27,5,69049.5,0.236198,5.63355e+06,0.52671,34.32,0.04,0.72,0.006667,0.0479259,0.251998,0.00226291,0.748002,0.793044,0.682468,0.247136,0.152306,0.295267,0.249315,0.243889,2026-10-01 16:47:43,142,6.1,0.292857,0,0,92.1502,0.651877,0,0.5,0.35,0.15,0,0,-1,-1,0.085
Green_YC310_Pro_5B88_261001_165015.csv,2,38,27,9,31960.9,0.0878437,5.80324e+06,0.560648,34.32,0,0.72,1.11022e-16,0.0438094,0.181024,-0.00198063,0.818976,0.807288,0.622063,0.186731,0.134897,0.298943,0.2501,0.244673,2026-10-01 16:50:15,152,6.2,0.3,0,0,89.701,0.621262,0,0.64,0.28,0.08,0,0,-1,-1,0.0930435
Green_YC310_Pro_5B88_261001_165241.csv,2,39,26,5,41925.7,0.127703,5.95327e+06,0.590654,34.37,0.05,0.728333,0.00833333,0.0410487,0.133426,-0.00276071,0.866574,0.834573,0.635096,0.199764,0.0997729,0.308987,0.270206,0.26478,2026-10-01 16:52:41,146,6.3,0.307143,0,0,87.4439,0.593049,0,0.5,0.45,0.05,0,0,-1,-1,0.08375
Green_YC310_Pro_5B88_261001_165512.csv,2,40,27,8,39278.4,0.117114,4.56537e+06,0.313074,34.41,0.04,0.735,0.006667,0.0536493,0.350678,0.00562553,0.649322,0.839044,0.648129,0.204235,0.083772,0.314468,0.27353,0.268104,2026-10-01 16:55:12,151,6.2,0.3,0,0,89.8004,0.622505,0,0.352941,0.647059,0,0,0,-1,-1,0.0818182
Green_YC310_Pro_5B88_261001_165743.csv,2,41,30,19,19960.3,0.039841,4.50845e+06,0.301691,34.5,0.09,0.75,0.015,0.0431763,0.170109,-0.00349789,0.829891,0.828143,0.683008,0.239115,0.0749604,0.321058,0.262705,0.257278,2026-10-01 16:57:43,151,6.3,0.307143,0,0,96.2567,0.703209,0,0.451613,0.548387,0,0,0,-1,-1,0.0941935
Green_YC310_Pro_5B88_261001_170013.csv,2,42,29,16,27706.6,0.0708264,5.2991e+06,0.45982,34.45,-0.05,0.741667,-0.00833333,0.0433498,0.173101,-0.000330344,0.826899,0.824681,0.709052,0.265159,0.0661489,0.320291,0.259904,0.254477,2026-10-01 17:00:13,150,6.6,0.328571,0,0,95.815,0.697688,0,0.37931,0.62069,0,0,0,-1,-1,0.101429
Green_YC310_Pro_5B88_261001_170242.csv,2,43,30,7,31944.8,0.0877792,5.46434e+06,0.492868,34.41,-0.04,0.735,-0.006667,0.0437807,0.18053,0.000934718,0.81947,0.826794,0.689744,0.245851,0.0901195,0.313128,0.26225,0.256824,2026-10-01 17:02:42,149,6.7,0.335714,0,0,99.0099,0.737624,0,0.366667,0.633333,0,0,0,-1,-1,0.1
Green_YC310_Pro_5B88_261001_170512.csv,2,44,25,22,37938.2,0.111753,5.42804e+06,0.485607,34.43,0.02,0.738333,0.00333333,0.0415645,0.142319,-0.00221623,0.857681,0.828908,0.633922,0.190029,0.0997842,0.312138,0.264445,0.259019,2026-10-01 17:05:12,150,6.6,0.328571,0,0,85.034,0.562925,0,0.68,0.28,0.04,0,0,-1,-1,0.0936
Green_YC310_Pro_5B88_261001_170742.csv,2,45,25,24,34370,0.0974801,5.48019e+06,0.496038,34.49,0.06,0.748333,0.0100003,0.0398907,0.113461,-0.00167376,0.886539,0.829231,0.580806,0.136912,0.101227,0.314986,0.264899,0.259473,2026-10-01 17:07:42,150,6.4,0.314286,0,0,82.4176,0.53022,0,0.576923,0.423077,0,0,0,-1,-1,0.09
Green_YC310_Pro_5B88_261001_171014.csv,2,46,27,25,34548.7,0.0981948,5.65183e+06,0.530367,34.5,0.01,0.75,0.001667,0.0426638,0.161272,0.00277306,0.838728,0.837387,0.555246,0.111352,0.092096,0.31744,0.271386,0.265959,2026-10-01 17:10:14,152,6.3,0.307143,0,0,86.262,0.578275,0.0357143,0.571429,0.392857,0,0,0,-1,-1,0.0896296
Green_YC310_Pro_5B88_261001_171241.csv,2,47,29,16,28628.5,0.0745142,5.75396e+06,0.550791,34.51,0.01,0.751667,0.00166667,0.0465834,0.228852,0.00391964,0.771148,0.834652,0.549955,0.108617,0.0833118,0.31982,0.269591,0.264164,2026-10-01 17:12:41,147,6.2,0.3,0,0,97.2067,0.715084,0,0.482759,0.517241,0,0,0,-1,-1,0.0881481
Green_YC310_Pro_5B88_261001_171513.csv,2,48,26,16,31506,0.0860241,5.95091e+06,0.590182,34.5,-0.01,0.75,-0.001667,0.0432049,0.170601,-0.00337853,0.829399,0.83332,0.542623,0.107285,0.0775115,0.32052,0.269092,0.263665,2026-10-01 17:15:13,152,6.2,0.3,0,0,86.6667,0.583334,0,0.481481,0.518519,0,0,0,-1,-1,0.0962963
Green_YC310_Pro_5B88_261001_171742.csv,2,49,25,16,25870.9,0.0634834,6.13016e+06,0.626032,34.51,0.01,0.751667,0.00166667,0.0454062,0.208554,0.00220126,0.791446,0.830568,0.540539,0.105201,0.0743347,0.321716,0.267063,0.261637,2026-10-01 17:17:42,149,6.3,0.307143,0,0,83.0565,0.538206,0,0.384615,0.615385,0,0,0,-1,-1,0.0969231
Green_YC310_Pro_5B88_261001_172012.csv,2,50,25,23,31086.9,0.0843478,5.87516e+06,0.575033,34.5,-0.01,0.75,-0.001667,0.0439574,0.183576,-0.00144882,0.816424,0.828453,0.546984,0.111646,0.075188,0.32101,0.265572,0.260146,2026-10-01 17:20:12,150,6.3,0.307143,0,0,82.2368,0.52796,0,0.461538,0.538462,0,0,0,-1,-1,0.0938462
Green_YC310_Pro_5B88_261001_172243.csv,2,51,26,19,28131.4,0.0725256,6.15296e+06,0.630593,34.5,0,0.75,0,0.0424839,0.158171,-0.0014735,0.841829,0.821804,0.55343,0.118092,0.0777329,0.320473,0.260784,0.255357,2026-10-01 17:22:43,151,6.3,0.307143,0,0,85.06,0.56325,0,0.62963,0.37037,0,0,0,-1,-1,0.0938462
Green_YC310_Pro_5B88_261001_172512.csv,2,52,26,24,27779.5,0.071118,4.84434e+06,0.368869,34.49,-0.01,0.748333,-0.00166667,0.0456562,0.212866,0.00317231,0.787134,0.8099,0.574854,0.139516,0.0779359,0.319904,0.252533,0.247106,2026-10-01 17:25:12,149,6.3,0.307143,0,0,85.5263,0.569079,0.037037,0.444444,0.518519,0,0,0,-1,-1,0.09
Green_YC310_Pro_5B88_261001_172742.csv,2,53,27,21,28107.7,0.0724309,5.27534e+06,0.455068,34.48,-0.01,0.746667,-0.00166633,0.0435468,0.176496,-0.00210944,0.823504,0.813744,0.565392,0.130054,0.0781388,0.319336,0.255356,0.249929,2026-10-01 17:27:42,150,6.3,0.307143,0,0,87.3786,0.592233,0,0.535714,0.464286,0,0,0,-1,-1,0.0921429
Green_YC310_Pro_5B88_261001_173013.csv,2,54,25,24,31289.9,0.0851596,5.39584e+06,0.479168,34.47,-0.01,0.745,-0.001667,0.0437016,0.179166,0.000154845,0.820834,0.826909,0.555166,0.119828,0.0787437,0.318683,0.264732,0.259305,2026-10-01 17:30:13,151,6.3,0.307143,0,0,82.3271,0.529089,0,0.576923,0.423077,0,0,0,-1,-1,0.0915385
Green_YC310_Pro_5B88_261001_173244.csv,2,55,26,19,29188,0.0767519,5.38716e+06,0.477433,34.48,0.01,0.746667,0.00166667,0.0426318,0.160721,-0.0010698,0.839279,0.836389,0.550805,0.115467,0.0793486,0.319081,0.271217,0.26579,2026-10-01 17:32:44,151,6.3,0.307143,0,0,85.6202,0.570252,0,0.518519,0.481481,0,0,0,-1,-1,0.0896296
Green_YC310_Pro_5B88_261001_173513.csv,2,56,25,22,29033.6,0.0761343,5.58336e+06,0.516671,34.47,-0.01,0.745,-0.001667,0.0418973,0.148056,-0.000734541,0.851944,0.833203,0.569749,0.134411,0.0615654,0.32231,0.269008,0.263582,2026-10-01 17:35:13,149,6.3,0.307143,0,0,82.6902,0.533628,0,0.576923,0.423077,0,0,0,-1,-1,0.09
Green_YC310_Pro_5B88_261001_173743.csv,2,57,27,8,17952.5,0.0318099,5.71571e+06,0.543143,34.45,-0.02,0.741667,-0.00333333,0.0454972,0.210124,0.0035999,0.789876,0.830016,0.591023,0.155685,0.0569323,0.322238,0.266896,0.26147,2026-10-01 17:37:43,150,6.3,0.307143,0,0,91.3191,0.641489,0,0.5,0.5,0,0,0,-1,-1,0.0871429
Green_YC310_Pro_5B88_261001_174012.csv,2,58,25,24,29355.4,0.0774217,5.55697e+06,0.511394,34.43,-0.02,0.738333,-0.00333367,0.0444409,0.191911,-0.00105634,0.808089,0.823421,0.598531,0.163193,0.055033,0.321588,0.262411,0.256985,2026-10-01 17:40:12,149,6.3,0.307143,0,0,83.7989,0.547486,0,0.423077,0.576923,0,0,0,-1,-1,0.0946154
Green_YC310_Pro_5B88_261001_174245.csv,2,59,28,18,18369.7,0.0334786,6.0031e+06,0.60062,34.41,-0.02,0.735,-0.003333,0.0430448,0.167841,-0.00139611,0.832159,0.822533,0.598913,0.163574,0.0543668,0.320677,0.262041,0.256615,2026-10-01 17:42:45,153,6.3,0.307143,0,0,92.613,0.657663,0,0.607143,0.392857,0,0,0,-1,-1,0.0923077
Green_YC310_Pro_5B88_261001_174513.csv,2,60,26,22,28272.1,0.0730885,5.79051e+06,0.558102,34.38,-0.03,0.73,-0.005,0.0459271,0.217536,0.0028823,0.782464,0.827351,0.598174,0.162836,0.0515185,0.319702,0.265861,0.260435,2026-10-01 17:45:13,148,6.3,0.307143,0,0,82.6271,0.532839,0.037037,0.37037,0.592593,0,0,0,-1,-1,0.0946154
Green_YC310_Pro_5B88_261001_174743.csv,2,61,29,13,16604.5,0.0264182,4.98352e+06,0.396705,34.36,-0.02,0.726667,-0.00333333,0.0436025,0.177457,-0.00232461,0.822543,0.82777,0.599995,0.163255,0.0472087,0.319562,0.26637,0.260944,2026-10-01 17:47:43,150,6.3,0.307143,0,0,93.5484,0.669355,0,0.633333,0.366667,0,0,0,-1,-1,0.0866667
Green_YC310_Pro_5B88_261001_175017.csv,2,62,25,17,21463.7,0.0458547,4.82223e+06,0.364445,34.33,-0.03,0.721667,-0.00500033,0.0429718,0.166583,-0.000630669,0.833417,0.825075,0.597791,0.161051,0.0421195,0.31906,0.264939,0.259513,2026-10-01 17:50:17,154,6.3,0.307143,0,0,84.5547,0.556934,0,0.615385,0.384615,0,0,0,-1,-1,0.0923077
Green_YC310_Pro_5B88_261001_175248.csv,2,63,24,22,24455.2,0.0578207,4.79676e+06,0.359352,34.31,-0.02,0.718333,-0.00333367,0.0442765,0.189078,0.00130473,0.810922,0.828366,0.561266,0.124527,0.050363,0.316268,0.268234,0.262808,2026-10-01 17:52:48,151,6.3,0.307143,0,0,82.0981,0.526226,0,0.4,0.6,0,0,0,-1,-1,0.0928
Green_YC310_Pro_5B88_261001_175513.csv,2,64,26,9,22787.2,0.0511488,5.20443e+06,0.440887,34.29,-0.02,0.715,-0.003333,0.0431362,0.169417,-0.00114034,0.830583,0.840759,0.542488,0.105748,0.0548182,0.314276,0.277861,0.272435,2026-10-01 17:55:13,145,6.3,0.307143,0,0,84.7826,0.559783,0,0.444444,0.555556,0,0,0,-1,-1,0.0938462
Green_YC310_Pro_5B88_261001_175743.csv,2,65,26,25,24788.6,0.0591546,5.19301e+06,0.438602,34.26,-0.03,0.71,-0.005,0.0408154,0.129403,-0.00232082,0.870597,0.843784,0.567081,0.108772,0.0491659,0.313893,0.27956,0.274134,2026-10-01 17:57:43,150,6.4,0.314286,0,0,81.9328,0.52416,0,0.481481,0.518519,0,0,0,-1,-1,0.0955556
Green_YC310_Pro_5B88_261001_180015.csv,2,66,28,19,16801.4,0.0272057,5.34841e+06,0.469682,34.26,0,0.71,-3.33067e-16,0.0437503,0.180005,0.00293489,0.819995,0.84268,0.589171,0.130862,0.057047,0.312229,0.277924,0.272498,2026-10-01 18:00:15,152,6.5,0.321429,0,0,92.8177,0.660221,0,0.392857,0.607143,0,0,0,-1,-1,0.0930769
Green_YC310_Pro_5B88_261001_180243.csv,2,67,22,4,38655.5,0.114622,5.81038e+06,0.562077,34.25,-0.01,0.708333,-0.00166667,0.0479924,0.253146,0.00424215,0.746854,0.845515,0.571208,0.1129,0.0795848,0.306944,0.280937,0.27551,2026-10-01 18:02:43,148,6.5,0.321429,0,0,71.3514,0.391892,0,0.4375,0.375,0.1875,0,0,-1,-1,0.075
Green_YC310_Pro_5B88_261001_180514.csv,2,68,26,22,25472.4,0.0618897,5.63179e+06,0.526359,34.26,0.01,0.71,0.001667,0.0424855,0.158198,-0.0055069,0.841802,0.849741,0.553246,0.0949371,0.0811269,0.307144,0.285004,0.279577,2026-10-01 18:05:14,151,6.5,0.321429,0,0,88.0361,0.600451,0,0.481481,0.518519,0,0,0,-1,-1,0.0915385
Green_YC310_Pro_5B88_261001_180744.csv,2,69,24,21,31526.5,0.0861061,5.83455e+06,0.566911,34.28,0.02,0.713333,0.00333333,0.0420294,0.150334,-0.000456128,0.849666,0.847289,0.548377,0.0924852,0.0722453,0.310071,0.283397,0.277971,2026-10-01 18:07:44,150,6.5,0.321429,0,0,80,0.5,0,0.56,0.44,0,0,0,-1,-1,0.0952
Green_YC310_Pro_5B88_261001_181014.csv,2,70,24,23,27953.6,0.0718144,6.09033e+06,0.618066,34.28,0,0.713333,3.33333e-07,0.041849,0.147224,-0.000180426,0.852776,0.845547,0.54468,0.0907434,0.0687401,0.310811,0.282557,0.27713,2026-10-01 18:10:14,150,6.5,0.321429,0,0,82.0046,0.525057,0,0.52,0.48,0,0,0,-1,-1,0.092
Green_YC310_Pro_5B88_261001_181245.csv,2,71,27,17,22843.5,0.0513741,6.34266e+06,0.668532,34.27,-0.01,0.711667,-0.00166633,0.0424346,0.157322,0.000585648,0.842678,0.843805,0.588441,0.134505,0.0624985,0.311603,0.277244,0.271818,2026-10-01 18:12:45,151,6.5,0.321429,0,0,88.7185,0.608981,0,0.62963,0.37037,0,0,0,-1,-1,0.0869231
Green_YC310_Pro_5B88_261001_181512.csv,2,72,27,9,24048,0.056192,6.67201e+06,0.734402,34.27,0,0.711667,-3.33333e-07,0.0449938,0.201444,0.00255917,0.798556,0.833724,0.57165,0.124423,0.056257,0.312921,0.271789,0.266362,2026-10-01 18:15:12,147,6.5,0.321429,0,0,90.5028,0.631285,0,0.518519,0.444444,0.037037,0,0,-1,-1,0.0958333
Green_YC310_Pro_5B88_261001_181743.csv,2,73,25,22,25285,0.0611398,4.84284e+06,0.368568,34.25,-0.02,0.708333,-0.00333367,0.0436032,0.177469,-0.00139058,0.822531,0.829324,0.5641,0.120023,0.0502652,0.313136,0.269668,0.264242,2026-10-01 18:17:43,151,6.4,0.314286,0,0,79.6178,0.495223,0,0.44,0.56,0,0,0,-1,-1,0.0968
Green_YC310_Pro_5B88_261001_182012.csv,2,74,27,23,18349.7,0.0333988,5.66243e+06,0.532487,34.23,-0.02,0.705,-0.003333,0.0430705,0.168284,-0.000532736,0.831716,0.817933,0.565793,0.121716,0.0488789,0.312377,0.261921,0.256494,2026-10-01 18:20:12,149,6.4,0.314286,0,0,89.5028,0.618785,0,0.535714,0.464286,0,0,0,-1,-1,0.0914286
Green_YC310_Pro_5B88_261001_182242.csv,2,75,27,22,22221.7,0.0488869,5.53948e+06,0.507896,34.21,-0.02,0.701667,-0.00333333,0.0457354,0.214232,0.00266493,0.785768,0.8114,0.559706,0.115629,0.0520981,0.310647,0.257895,0.252468,2026-10-01 18:22:42,150,6.4,0.314286,0,0,90.9091,0.636364,0,0.296296,0.703704,0,0,0,-1,-1,0.0969231
Green_YC310_Pro_5B88_261001_182512.csv,2,76,24,18,28502.2,0.0740087,5.43223e+06,0.486446,34.18,-0.03,0.696667,-0.00500033,0.0425779,0.159792,-0.00315749,0.840208,0.816716,0.553619,0.109542,0.0687416,0.305556,0.262217,0.25679,2026-10-01 18:25:12,150,6.4,0.314286,0,0,79.3826,0.492282,0,0.24,0.76,0,0,0,-1,-1,0.0984
Green_YC310_Pro_5B88_261001_182742.csv,2,77,24,21,30832.3,0.0833293,5.38369e+06,0.476739,34.16,-0.02,0.693333,-0.00333367,0.0421455,0.152336,-0.000432405,0.847664,0.824371,0.550277,0.1062,0.061658,0.306001,0.267949,0.262523,2026-10-01 18:27:42,150,6.3,0.307143,0,0,77.6699,0.470874,0,0.52,0.48,0,0,0,-1,-1,0.0976
Green_YC310_Pro_5B88_261001_183013.csv,2,78,25,24,26681.3,0.0667251,5.61016e+06,0.522032,34.16,0,0.693333,3.33333e-07,0.0434686,0.175149,0.00132312,0.824851,0.832025,0.546934,0.102857,0.0545744,0.307496,0.273215,0.267789,2026-10-01 18:30:13,151,6.3,0.307143,0,0,81.2568,0.51571,0,0.5,0.5,0,0,0,-1,-1,0.0946154
Green_YC310_Pro_5B88_261001_183242.csv,2,79,28,16,16454.9,0.0258196,4.78134e+06,0.356267,34.18,0.02,0.696667,0.00333367,0.0439596,0.183613,0.000490958,0.816387,0.827425,0.550107,0.10603,0.0513217,0.309234,0.269838,0.264411,2026-10-01 18:32:42,149,6.4,0.314286,0,0,89.8396,0.622995,0,0.37931,0.62069,0,0,0,-1,-1,0.095
Green_YC310_Pro_5B88_261001_183512.csv,2,80,24,22,28392.8,0.073571,5.42143e+06,0.484286,34.18,0,0.696667,-3.33333e-07,0.0412303,0.136556,-0.00272934,0.863444,0.820701,0.532232,0.0993068,0.0606488,0.307265,0.26398,0.258553,2026-10-01 18:35:12,150,6.3,0.307143,0,0,78.4314,0.480392,0,0.48,0.52,0,0,0,-1,-1,0.0975
Green_YC310_Pro_5B88_261001_183742.csv,2,81,25,16,27408.4,0.0696336,5.68165e+06,0.53633,34.18,0,0.696667,-3.33333e-07,0.0449857,0.201306,0.00375544,0.798694,0.824387,0.505146,0.0722199,0.0787356,0.303445,0.26398,0.258553,2026-10-01 18:37:42,150,6.2,0.3,0,0,83.612,0.54515,0,0.384615,0.615385,0,0,0,-1,-1,0.0953846
Green_YC310_Pro_5B88_261001_184014.csv,2,82,23,22,35526,0.102104,5.55539e+06,0.511078,34.18,0,0.696667,-3.33333e-07,0.0426577,0.161168,-0.00232795,0.838832,0.840604,0.496371,0.0634455,0.0818438,0.302789,0.26398,0.258553,2026-10-01 18:40:14,152,6.2,0.3,0,0,75.9912,0.44989,0,0.416667,0.583333,0,0,0,-1,-1,0.1
Green_YC310_Pro_5B88_261001_184242.csv,2,83,26,19,23461.3,0.0538452,5.65186e+06,0.530373,34.17,-0.01,0.695,-0.001667,0.0401242,0.117485,-0.00253355,0.882515,0.849948,0.500674,0.067748,0.0737938,0.303963,0.26398,0.258553,2026-10-01 18:42:42,148,6.2,0.3,0,0,83.2444,0.540555,0.08,0.4,0.52,0,0,0,-1,-1,0.0963636
Green_YC310_Pro_5B88_261001_184514.csv,2,84,25,15,21370.9,0.0454837,5.65806e+06,0.531612,34.15,-0.02,0.691667,-0.00333333,0.0433599,0.173275,0.00323575,0.826725,0.843398,0.511576,0.0786505,0.0700821,0.303696,0.26398,0.258553,2026-10-01 18:45:14,152,6.2,0.3,0,0,83.0565,0.538206,0,0.384615,0.615385,0,0,0,-1,-1,0.0992
Green_YC310_Pro_5B88_261001_184749.csv,2,85,22,21,32742.2,0.0909689,5.7502e+06,0.55004,34.15,0,0.691667,-3.33333e-07,0.0427277,0.162375,-0.000632155,0.837625,0.832112,0.476163,0.0673653,0.0781815,0.301986,0.26398,0.258553,2026-10-01 18:47:49,155,6.2,0.3,0,0,76.4774,0.455968,0,0.434783,0.565217,0,0,0,-1,-1,0.0991304
Green_YC310_Pro_5B88_261001_185014.csv,2,86,22,21,31326.1,0.0853045,5.76632e+06,0.553264,34.13,-0.02,0.688333,-0.00333367,0.0428215,0.163992,9.38432e-05,0.836008,0.831987,0.450691,0.0672397,0.087131,0.299045,0.26398,0.258553,2026-10-01 18:50:14,145,6.1,0.292857,0,0,74.7452,0.434315,0,0.391304,0.608696,0,0,0,-1,-1,0.10087
Green_YC310_Pro_5B88_261001_185244.csv,2,87,23,22,31736.5,0.086946,5.69647e+06,0.539293,34.09,-0.04,0.681667,-0.00666633,0.043615,0.177673,0.000793538,0.822327,0.824864,0.43673,0.0601174,0.0822767,0.297968,0.26398,0.258553,2026-10-01 18:52:44,150,6.1,0.292857,0,0,75.3275,0.441594,0,0.217391,0.782609,0,0,0,-1,-1,0.103478
Green_YC310_Pro_5B88_261001_185512.csv,2,88,23,20,27854.8,0.0714191,5.67459e+06,0.534917,34.08,-0.01,0.68,-0.001667,0.043967,0.183742,0.000352048,0.816258,0.829747,0.471846,0.0649998,0.0745797,0.299068,0.26398,0.258553,2026-10-01 18:55:12,148,6.1,0.292857,0,0,74.3534,0.429417,0,0.291667,0.708333,0,0,0,-1,-1,0.1025
Green_YC310_Pro_5B88_261001_185742.csv,2,89,26,25,26343.5,0.0653741,6.01702e+06,0.603405,34.08,0,0.68,-3.33067e-16,0.0421192,0.151882,-0.00184782,0.848118,0.819093,0.526696,0.119849,0.0596854,0.302213,0.26398,0.258553,2026-10-01 18:57:42,150,6.2,0.3,0,0,86.9565,0.586956,0,0.666667,0.333333,0,0,0,-1,-1,0.0881481
Green_YC310_Pro_5B88_261001_190012.csv,2,90,26,24,20565.8,0.042263,5.17677e+06,0.435355,34.07,-0.01,0.678333,-0.00166667,0.0423959,0.156653,0.000276665,0.843347,0.792903,0.563713,0.156866,0.0611052,0.301388,0.26398,0.258553,2026-10-01 19:00:12,150,6.3,0.307143,0,0,86.1878,0.577347,0,0.518519,0.481481,0,0,0,-1,-1,0.0925926
Green_YC310_Pro_5B88_261001_190242.csv,2,91,25,11,30341.8,0.0813673,5.26313e+06,0.452626,34.06,-0.01,0.676667,-0.00166633,0.0485241,0.262312,0.00391653,0.737688,0.761525,0.535619,0.128772,0.0640046,0.30025,0.243999,0.238573,2026-10-01 19:02:42,150,6.3,0.307143,0,0,82.1468,0.526835,0,0.333333,0.666667,0,0,0,-1,-1,0.102609
Green_YC310_Pro_5B88_261001_190516.csv,2,92,25,6,25472.9,0.0618914,5.29862e+06,0.459723,34.05,-0.01,0.675,-0.001667,0.0475789,0.246015,-0.000995294,0.753985,0.745837,0.510727,0.113083,0.0683834,0.2988,0.235073,0.229647,2026-10-01 19:05:16,154,6.3,0.307143,0,0,80.2139,0.502674,0,0.315789,0.631579,0.0526316,0,0,-1,-1,0.1025
Green_YC310_Pro_5B88_261001_190747.csv,2,93,25,10,33172.2,0.0926889,5.20096e+06,0.440192,33.95,-0.1,0.658333,-0.0166667,0.0485444,0.262662,0.00322728,0.737338,0.745837,0.502674,0.10503,0.0618914,0.294916,0.237918,0.232491,2026-10-01 19:07:47,151,6.4,0.314286,0,0,80.1282,0.501603,0,0.130435,0.869565,0,0,0,-1,-1,0.11619
Green_YC310_Pro_5B88_261001_191011.csv,2,94,16,6,53376.7,0.173507,5.72217e+06,0.544434,33.87,-0.08,0.645,-0.013333,0.0642485,0.533423,0.0101176,0.466577,0.745837,0.502674,0.10503,0.0618914,0.290712,0.23962,0.234194,2026-10-01 19:10:11,144,6.6,0.328571,0,0,63.6605,0.295756,0,0.0833333,0.583333,0.25,0.0833333,0,-1,-1,0.11
Green_YC310_Pro_5B88_261001_191244.csv,2,95,24,8,28089.2,0.072357,5.6945e+06,0.5389,33.87,0,0.645,-4.44089e-16,0.0478086,0.249976,-0.0108534,0.750024,0.752873,0.511102,0.112066,0.121407,0.278144,0.243313,0.237887,2026-10-01 19:12:44,153,6.6,0.328571,0,0,80.2676,0.503345,0,0.2,0.76,0.04,0,0,-1,-1,0.108333
Green_YC310_Pro_5B88_261001_191512.csv,2,96,25,4,41480.6,0.125922,5.88579e+06,0.577158,33.88,0.01,0.646667,0.00166667,0.0459465,0.217871,-0.0018621,0.782129,0.744883,0.486987,0.104076,0.11642,0.279723,0.240733,0.235306,2026-10-01 19:15:12,148,6.6,0.328571,0,0,82.2368,0.52796,0,0.388889,0.555556,0.0555556,0,0,-1,-1,0.0890909
Green_YC310_Pro_5B88_261001_191743.csv,2,97,21,5,50361.6,0.161447,6.0649e+06,0.612981,33.82,-0.06,0.636667,-0.0100003,0.0554959,0.382516,0.00954941,0.617484,0.729858,0.462873,0.0890507,0.149605,0.269562,0.23356,0.228133,2026-10-01 19:17:43,151,6.5,0.321429,0,0,72.4971,0.406214,0,0.230769,0.461538,0.307692,0,0,-1,-1,0.1
Green_YC310_Pro_5B88_261001_192013.csv,2,98,23,2,45674.6,0.142698,6.28918e+06,0.657836,33.75,-0.07,0.625,-0.011667,0.0522253,0.326127,-0.00607904,0.673873,0.714832,0.42229,0.0740252,0.161447,0.263383,0.224712,0.219285,2026-10-01 19:20:13,150,6.4,0.314286,0,0,75.9076,0.448845,0,0.416667,0.5,0.0833333,0,0,-1,-1,0.105
Green_YC310_Pro_5B88_261001_233226.csv,1,99,28,2,16808.7,0.0272348,5.0511e+06,0.410219,34.85,1.1,0.808333,0.183333,0.0455525,0.211077,-0.00667281,0.788923,0.699806,0.406214,0.0589997,0.161447,0.321188,0.224712,0.219285,2026-10-01 23:32:26,15133,5.5,0.25,0,0,93.1264,0.66408,0,0.52381,0.380952,0.0952381,0,0,-1,-1,0.08625
