Sheet Name,Segment,Index,total_beat_count,Sel_Min,diff,diff_n,mean,mean_n,temp,temp_raw_diff,temp_n,temp_diff,rise_low,rise_low_n,rise_low_diff,rise_low_n_inv,rise_low_n_inv_center,HR_n_center,HR_n_center_lim,diff_n_center,diff_anker,rl_inv_corr,inv_corr,datetime,time_gap_seconds,CGM,CGM_n,SMBG,SMBG_n,HR,HR_n,r20,r40,r60,r80,r100,time_gap_state,time_gap_slot,time_gap_offset_s,rise_low_50
Green_YC310_Pro_5B88_260929_020515.csv,2,1,38,30,41739.7,0.126959,5.11703e+06,0.423406,33.88,0,0.646667,0,0.0548718,0.371755,0,0.628245,0.628245,0.489584,0.489584,0.126959,0.277497,0.236985,0.25,2026-09-29 02:06:06,0,5.4,0.242857,5.5,0.25,79.1667,0.489584,0,0.282051,0.692308,0.025641,0,1,0,0,0.103784
Green_YC310_Pro_5B88_260929_020734.csv,2,2,38,21,40472.5,0.12189,5.09e+06,0.418001,33.94,0.06,0.656667,0.00999967,0.0538462,0.354072,-0.00102565,0.645928,0.636519,0.48334,0.48334,0.130351,0.279934,0.244733,0.25531,2026-09-29 02:08:20,134,5.4,0.242857,0,0,80.6223,0.507779,0,0.307692,0.692308,0,0,1,1,0,0.104103
Green_YC310_Pro_5B88_260929_020953.csv,2,3,35,33,47393.7,0.149575,5.07367e+06,0.414735,33.99,0.05,0.665,0.008333,0.0561111,0.393123,0.00226491,0.606877,0.635768,0.453897,0.482588,0.142205,0.280059,0.251188,0.261642,2026-09-29 02:10:37,137,5.4,0.242857,0,0,74.2574,0.428218,0,0.194444,0.805556,0,0,1,2,0,0.109444
Green_YC310_Pro_5B88_260929_021213.csv,2,4,36,27,48787.2,0.155149,5.12319e+06,0.424638,34.02,0.03,0.67,0.005,0.0538889,0.354808,-0.00222221,0.645192,0.635016,0.444583,0.481837,0.145271,0.280987,0.256197,0.265721,2026-09-29 02:13:00,143,5.4,0.242857,0,0,76.1099,0.451374,0,0.305556,0.694444,0,0,1,3,0,0.11
Green_YC310_Pro_5B88_260929_021431.csv,2,5,36,35,50298,0.161192,5.13971e+06,0.427943,34.05,0.03,0.675,0.005,0.0551351,0.376295,0.00124624,0.623705,0.634231,0.457727,0.49498,0.161665,0.279102,0.245241,0.256651,2026-09-29 02:15:13,133,5.4,0.242857,0,0,75.7895,0.447369,0,0.243243,0.756757,0,0,1,4,0,0.103243
Green_YC310_Pro_5B88_260929_021652.csv,2,6,38,29,52163.2,0.168653,5.07794e+06,0.415587,34.07,0.02,0.678333,0.00333333,0.055,0.373966,-0.0001351,0.626034,0.635863,0.453947,0.491201,0.166034,0.27923,0.248562,0.259844,2026-09-29 02:17:34,141,5.4,0.242857,0,0,78.7837,0.484796,0,0.25,0.75,0,0,1,5,0,0.106286
Green_YC310_Pro_5B88_260929_021911.csv,2,7,33,31,51946.2,0.167785,5.06374e+06,0.412747,34.06,-0.01,0.676667,-0.00166633,0.0547059,0.368895,-0.000294118,0.631105,0.637822,0.429677,0.466931,0.178838,0.276001,0.244825,0.259336,2026-09-29 02:19:51,137,6.3,0.307143,0,0,71.6872,0.39609,0,0.264706,0.735294,0,0,2,6,0,0.105294
Green_YC310_Pro_5B88_260929_022139.csv,2,8,33,32,62782.2,0.211129,5.40466e+06,0.480931,34.05,-0.01,0.675,-0.001667,0.0576471,0.419604,0.00294116,0.580396,0.637006,0.394024,0.466115,0.195744,0.271906,0.244825,0.263431,2026-09-29 02:22:22,151,6.3,0.307143,0,0,69.9647,0.374559,0,0.117647,0.882353,0,0,2,7,0,0.111765
Green_YC310_Pro_5B88_260929_022350.csv,2,9,32,30,58232.9,0.192932,5.06578e+06,0.413156,34.08,0.03,0.68,0.005,0.0581818,0.428824,0.000534718,0.571176,0.635972,0.375888,0.465081,0.19917,0.272759,0.244825,0.262578,2026-09-29 02:24:32,130,6.3,0.307143,0,0,70.2268,0.377835,0,0.0909091,0.909091,0,0,2,8,0,0.106667
Green_YC310_Pro_5B88_260929_022608.csv,2,10,33,31,59921.4,0.199686,5.02426e+06,0.404853,34.07,-0.01,0.678333,-0.00166667,0.0539394,0.355679,-0.00424241,0.644321,0.634207,0.377326,0.466519,0.191935,0.273761,0.244825,0.261576,2026-09-29 02:26:47,135,6.3,0.307143,0,0,69.8659,0.373324,0,0.30303,0.69697,0,0,2,9,0,0.104118
Green_YC310_Pro_5B88_260929_022840.csv,2,11,33,32,54658.9,0.178635,5.05415e+06,0.410829,34.04,-0.03,0.673333,-0.00499967,0.0505882,0.297901,-0.00335116,0.702099,0.630896,0.38082,0.470012,0.183186,0.274032,0.244825,0.261305,2026-09-29 02:29:21,154,6.3,0.307143,0,0,70.5631,0.382039,0,0.470588,0.529412,0,0,2,10,0,0.101765
Green_YC310_Pro_5B88_260929_023047.csv,2,12,33,31,52809.2,0.171237,4.8472e+06,0.369441,34.03,-0.01,0.671667,-0.00166633,0.0552941,0.379037,0.00470592,0.620963,0.618415,0.42906,0.518253,0.169587,0.276378,0.244825,0.258959,2026-09-29 02:31:27,126,6.3,0.307143,0,0,70.9677,0.387096,0,0.235294,0.764706,0,0,2,11,0,0.102941
Green_YC310_Pro_5B88_260929_023303.csv,2,13,35,31,49722.1,0.158888,4.86228e+06,0.372457,34,-0.03,0.666667,-0.00500033,0.0561111,0.393123,0.000817011,0.606877,0.637104,0.434689,0.523881,0.162596,0.276278,0.257489,0.271723,2026-09-29 02:33:43,136,6.9,0.35,0,0,74.5739,0.432174,0,0.194444,0.805556,0,0,2,12,0,0.101111
Green_YC310_Pro_5B88_260929_023523.csv,2,14,38,36,49827.9,0.159312,4.82604e+06,0.365208,33.97,-0.03,0.661667,-0.00500033,0.0517949,0.318705,-0.00431623,0.681295,0.655792,0.456565,0.54257,0.158336,0.275601,0.273612,0.288523,2026-09-29 02:36:02,139,6.9,0.35,0,0,78.7837,0.484796,0,0.410256,0.589744,0,0,2,13,0,0.0952632
Green_YC310_Pro_5B88_260929_023742.csv,2,15,44,43,49777.7,0.159111,4.73965e+06,0.347929,33.93,-0.04,0.655,-0.006667,0.0488889,0.268602,-0.00290601,0.731398,0.674493,0.482529,0.561271,0.156807,0.273822,0.290946,0.307636,2026-09-29 02:38:21,139,6.9,0.35,0,0,91.5395,0.644244,0,0.555556,0.444444,0,0,2,14,0,0.0913636
Green_YC310_Pro_5B88_260929_024001.csv,2,16,41,35,47999.7,0.151999,4.83844e+06,0.367689,33.9,-0.03,0.65,-0.005,0.0528571,0.33702,0.00396824,0.66298,0.687569,0.512578,0.574347,0.153713,0.272899,0.305666,0.32328,2026-09-29 02:40:42,141,6.9,0.35,0,0,85.8339,0.572924,0,0.357143,0.642857,0,0,2,15,0,0.0961905
Green_YC310_Pro_5B88_260929_024220.csv,2,17,37,30,47507.5,0.15003,4.82316e+06,0.364631,33.87,-0.03,0.645,-0.005,0.0531579,0.342205,0.000300795,0.657795,0.693125,0.51499,0.576759,0.158269,0.27036,0.310291,0.330443,2026-09-29 02:42:59,137,6.9,0.35,0,0,77.4599,0.468249,0,0.342105,0.657895,0,0,2,16,0,0.0973684
Green_YC310_Pro_5B88_260929_024439.csv,2,18,36,34,52766,0.171064,4.75798e+06,0.351595,33.84,-0.03,0.64,-0.005,0.0524324,0.329697,-0.000725468,0.670303,0.692009,0.498871,0.575642,0.161019,0.268203,0.307234,0.329543,2026-09-29 02:45:25,146,6.9,0.35,0,0,76.5957,0.457446,0,0.378378,0.621622,0,0,2,17,0,0.0983784
Green_YC310_Pro_5B88_260929_024659.csv,2,19,38,35,47979.9,0.15192,4.76381e+06,0.352761,33.81,-0.03,0.635,-0.005,0.0502564,0.292179,-0.00217599,0.707821,0.69501,0.475291,0.552062,0.161216,0.266585,0.304894,0.328821,2026-09-29 02:47:41,136,6.9,0.35,0,0,80.4517,0.505646,0,0.487179,0.512821,0,0,2,18,0,0.0969231
Green_YC310_Pro_5B88_260929_024917.csv,2,20,37,34,52490.3,0.169961,4.76837e+06,0.353673,33.79,-0.02,0.631667,-0.00333333,0.0510526,0.305907,0.000796232,0.694093,0.700831,0.46278,0.539551,0.15971,0.265852,0.306157,0.330817,2026-09-29 02:49:58,137,6.6,0.328571,0,0,77.8401,0.473001,0,0.447368,0.552632,0,0,2,19,0,0.0983784
Green_YC310_Pro_5B88_260929_025141.csv,2,21,34,25,46749,0.146996,4.83167e+06,0.366335,33.75,-0.04,0.625,-0.006667,0.0502857,0.292685,-0.000766886,0.707315,0.695186,0.461018,0.537789,0.162422,0.263178,0.303954,0.331289,2026-09-29 02:52:21,143,6.6,0.328571,0,0,73.5931,0.419914,0,0.485714,0.514286,0,0,2,20,0,0.0971429
Green_YC310_Pro_5B88_260929_025354.csv,2,22,37,35,56742.1,0.186969,5.2971e+06,0.45942,33.72,-0.03,0.62,-0.005,0.05,0.287759,-0.0002857,0.712241,0.684149,0.469012,0.545783,0.170309,0.259936,0.300476,0.331052,2026-09-29 02:54:33,132,6.6,0.328571,0,0,80.0288,0.50036,0,0.5,0.5,0,0,2,21,0,0.0952632
Green_YC310_Pro_5B88_260929_025612.csv,2,23,36,31,58405.5,0.193622,5.32605e+06,0.46521,33.68,-0.04,0.613333,-0.00666667,0.052973,0.339017,0.00297297,0.660983,0.674918,0.469906,0.546677,0.173807,0.257095,0.29683,0.330247,2026-09-29 02:56:52,139,6.6,0.328571,0,0,76.4331,0.455414,0,0.378378,0.594595,0.027027,0,2,22,0,0.0967568
Green_YC310_Pro_5B88_260929_025833.csv,2,24,36,29,49372.7,0.157491,5.63011e+06,0.526022,33.65,-0.03,0.608333,-0.00499967,0.0518919,0.320377,-0.00108111,0.679623,0.66396,0.450327,0.535719,0.174884,0.255291,0.287525,0.322746,2026-09-29 02:59:12,140,6.6,0.328571,0,0,77.4749,0.468436,0,0.405405,0.594595,0,0,2,23,0,0.0983784
Green_YC310_Pro_5B88_260929_030051.csv,2,25,35,30,52701.5,0.170806,5.61139e+06,0.522278,33.62,-0.03,0.603333,-0.00499967,0.0544444,0.364387,0.00255254,0.635613,0.656669,0.427131,0.528428,0.17354,0.253998,0.279503,0.316017,2026-09-29 03:01:33,141,6.6,0.328571,0,0,74.4153,0.430191,0,0.277778,0.722222,0,0,2,24,0,0.103333
Green_YC310_Pro_5B88_260929_030310.csv,2,26,33,30,57397.6,0.18959,5.59052e+06,0.518103,33.58,-0.04,0.596667,-0.00666633,0.0529412,0.338469,-0.00150322,0.661531,0.65477,0.423876,0.526529,0.17189,0.252245,0.27908,0.317347,2026-09-29 03:03:50,137,6.2,0.3,0,0,70.8661,0.385826,0,0.352941,0.647059,0,0,2,25,0,0.0982353
Green_YC310_Pro_5B88_260929_030531.csv,2,27,35,32,48134.6,0.152538,5.64064e+06,0.528127,33.55,-0.03,0.591667,-0.00500033,0.0522222,0.326073,-0.000718978,0.673927,0.66012,0.42062,0.523273,0.167323,0.251633,0.282383,0.321263,2026-09-29 03:06:11,141,6.2,0.3,0,0,74.4153,0.430191,0,0.388889,0.611111,0,0,2,26,0,0.0972222
Green_YC310_Pro_5B88_260929_030748.csv,2,28,36,32,53656.9,0.174627,5.59713e+06,0.519426,33.52,-0.03,0.586667,-0.00500033,0.0535135,0.348336,0.00129131,0.651664,0.663231,0.411467,0.514121,0.167794,0.249957,0.283177,0.323732,2026-09-29 03:08:27,136,6.2,0.3,0,0,76.4331,0.455414,0,0.324324,0.675676,0,0,2,27,0,0.102778
Green_YC310_Pro_5B88_260929_031007.csv,2,29,32,29,52345.9,0.169384,5.63537e+06,0.527074,33.48,-0.04,0.58,-0.006667,0.0521212,0.324331,-0.00139229,0.675669,0.659693,0.390473,0.510583,0.172194,0.246926,0.278059,0.321645,2026-09-29 03:10:52,145,6.2,0.3,0,0,68.6695,0.358369,0,0.393939,0.606061,0,0,2,28,0,0.100625
Green_YC310_Pro_5B88_260929_031226.csv,2,30,34,33,53375.8,0.173503,5.85379e+06,0.570758,33.45,-0.03,0.575,-0.005,0.0525714,0.332094,0.000450229,0.667906,0.651747,0.368086,0.502637,0.17257,0.24527,0.269843,0.315085,2026-09-29 03:13:08,136,6.2,0.3,0,0,71.1793,0.389741,0,0.371429,0.628571,0,0,2,29,0,0.100571
Green_YC310_Pro_5B88_260929_031445.csv,2,31,32,21,53705.7,0.174823,5.83443e+06,0.566886,33.41,-0.04,0.568333,-0.00666667,0.0558333,0.388333,0.00326193,0.611667,0.62337,0.361934,0.496485,0.177711,0.242082,0.253975,0.302405,2026-09-29 03:15:27,139,6.2,0.3,0,0,66.7594,0.334492,0,0.208333,0.791667,0,0,2,30,0,0.103125
Green_YC310_Pro_5B88_260929_031705.csv,2,32,33,29,56201.6,0.184806,5.80372e+06,0.560744,33.38,-0.03,0.563333,-0.00499967,0.0570588,0.409462,0.00122552,0.590538,0.604863,0.365839,0.50039,0.169961,0.242142,0.245443,0.293812,2026-09-29 03:18:03,156,5.9,0.278571,0,0,71.1207,0.389009,0,0.147059,0.852941,0,0,2,31,0,0.104706
Green_YC310_Pro_5B88_260929_031929.csv,2,33,33,21,46841.4,0.147366,5.92623e+06,0.585245,33.34,-0.04,0.556667,-0.00666633,0.0564706,0.39932,-0.000588212,0.60068,0.590017,0.374015,0.508566,0.162948,0.241521,0.240203,0.289194,2026-09-29 03:20:11,128,5.9,0.278571,0,0,70.4125,0.380156,0,0.176471,0.823529,0,0,2,32,0,0.105294
Green_YC310_Pro_5B88_260929_032143.csv,2,34,32,31,53063.5,0.172254,5.84662e+06,0.569324,33.31,-0.03,0.551667,-0.00500033,0.0575758,0.418375,0.00110516,0.581625,0.578833,0.347269,0.497382,0.16072,0.240415,0.229246,0.279342,2026-09-29 03:22:24,133,5.9,0.278571,0,0,68.2303,0.352879,0,0.121212,0.878788,0,0,2,33,0,0.106667
Green_YC310_Pro_5B88_260929_032402.csv,2,35,30,17,47751.1,0.151004,5.96207e+06,0.592415,33.27,-0.04,0.545,-0.006667,0.0591667,0.445805,0.00159087,0.554195,0.563338,0.329337,0.481887,0.159606,0.238549,0.218084,0.270047,2026-09-29 03:24:41,137,5.9,0.278571,0,0,64.7017,0.308771,0,0.0416667,0.958333,0,0,2,34,0,0.103333
Green_YC310_Pro_5B88_260929_032620.csv,2,36,31,23,48827.1,0.155308,5.91607e+06,0.583215,33.24,-0.03,0.54,-0.005,0.0591667,0.445805,-3.33333e-08,0.554195,0.584622,0.311404,0.463955,0.155559,0.237827,0.227185,0.27987,2026-09-29 03:27:01,140,5.9,0.278571,0,0,64.9441,0.311801,0,0.0416667,0.958333,0,0,2,35,0,0.10625
Green_YC310_Pro_5B88_260929_032839.csv,2,37,30,21,50091.1,0.160364,5.93288e+06,0.586576,33.2,-0.04,0.533333,-0.00666667,0.0591304,0.44518,-3.62652e-05,0.55482,0.55881,0.310439,0.462989,0.159967,0.234794,0.213858,0.269576,2026-09-29 03:29:20,139,5.9,0.278571,0,0,65.123,0.314038,0,0.0434783,0.956522,0,0,2,36,0,0.109032
Green_YC310_Pro_5B88_260929_033058.csv,2,38,30,21,51057.2,0.164229,5.91435e+06,0.58287,33.17,-0.03,0.528333,-0.00499967,0.0584,0.432586,-0.0007304,0.567414,0.563599,0.323399,0.467778,0.144795,0.236421,0.220299,0.27439,2026-09-29 03:31:39,139,5.9,0.278571,0,0,64.4699,0.305874,0,0.08,0.92,0,0,2,37,0,0.107097
Green_YC310_Pro_5B88_260929_033318.csv,2,39,33,9,37547,0.110188,4.99776e+06,0.399553,33.15,-0.02,0.525,-0.003333,0.0583333,0.431437,-6.66667e-05,0.568563,0.558801,0.334853,0.479232,0.130107,0.238472,0.220718,0.272758,2026-09-29 03:33:59,140,5.9,0.278571,0,0,69.425,0.367812,0,0.208333,0.666667,0.125,0,2,38,0,0.102222
Green_YC310_Pro_5B88_260929_033538.csv,2,40,30,23,38287.7,0.113151,4.93201e+06,0.386403,33.11,-0.04,0.518333,-0.00666667,0.0592,0.446379,0.0008667,0.553621,0.554004,0.330872,0.475251,0.115903,0.239369,0.218517,0.26966,2026-09-29 03:36:19,140,5.9,0.278571,0,0,64.4699,0.305874,0,0.04,0.96,0,0,2,39,0,0.110323
Green_YC310_Pro_5B88_260929_033755.csv,2,41,30,23,40404.5,0.121618,4.96758e+06,0.393516,33.09,-0.02,0.515,-0.003333,0.06,0.460172,0.0008,0.539828,0.544426,0.319963,0.465673,0.118254,0.237822,0.211497,0.264188,2026-09-29 03:38:37,138,5.9,0.278571,0,0,63.5145,0.293931,0,0,1,0,0,2,40,0,0.112258
Green_YC310_Pro_5B88_260929_034014.csv,2,42,30,26,39310.2,0.117241,4.93087e+06,0.386173,33.08,-0.01,0.513333,-0.00166667,0.06,0.460172,4.16334e-17,0.539828,0.548633,0.309054,0.454763,0.119004,0.237138,0.211864,0.265238,2026-09-29 03:40:55,138,5.9,0.278571,0,0,64.7482,0.309352,0,0,1,0,0,2,41,0,0.114839
Green_YC310_Pro_5B88_260929_034233.csv,2,43,30,25,39335.6,0.117342,4.8887e+06,0.37774,33.12,0.04,0.52,0.006667,0.06,0.460172,4.16334e-17,0.539828,0.539828,0.306143,0.451853,0.118153,0.23942,0.20498,0.256073,2026-09-29 03:43:14,139,5.9,0.278571,0,0,65.9341,0.324176,0,0.0344828,0.931034,0.0344828,0,2,42,0,0.114194
Green_YC310_Pro_5B88_260929_034453.csv,2,44,29,22,39766.2,0.119065,5.01359e+06,0.402718,33.16,0.04,0.526667,0.00666667,0.06,0.460172,3.46945e-17,0.539828,0.53612,0.30272,0.448429,0.117912,0.241572,0.200842,0.249781,2026-09-29 03:45:34,140,5.9,0.278571,0,0,62.8159,0.285199,0,0,1,0,0,2,43,0,0.117333
Green_YC310_Pro_5B88_260929_034712.csv,2,45,30,29,39129.4,0.116518,4.97533e+06,0.395065,33.2,0.04,0.533333,0.00666633,0.0606452,0.471296,0.000645161,0.528704,0.53612,0.298784,0.444493,0.118065,0.243642,0.19867,0.24554,2026-09-29 03:47:52,138,6.1,0.292857,0,0,64.194,0.302425,0,0,0.967742,0.0322581,0,2,44,0,0.118065
Green_YC310_Pro_5B88_260929_034931.csv,2,46,31,25,39667.2,0.118669,4.92726e+06,0.385452,33.25,0.05,0.541667,0.00833367,0.06,0.460172,-0.0006452,0.539828,0.53612,0.305483,0.451193,0.118611,0.246154,0.19843,0.242788,2026-09-29 03:50:12,140,6.1,0.292857,0,0,64.9895,0.312369,0,0,1,0,0,2,45,0,0.118065
Green_YC310_Pro_5B88_260929_035150.csv,2,47,30,28,40161.6,0.120647,4.9345e+06,0.3869,33.31,0.06,0.551667,0.00999967,0.06,0.460172,3.46945e-17,0.539828,0.522771,0.307704,0.453414,0.120684,0.248869,0.189428,0.23107,2026-09-29 03:52:31,139,6.1,0.292857,0,0,64.4238,0.305297,0,0.0322581,0.935484,0.0322581,0,2,46,0,0.117419
Green_YC310_Pro_5B88_260929_035410.csv,2,48,31,28,40684.4,0.122737,4.9406e+06,0.388119,33.35,0.04,0.558333,0.00666633,0.0612903,0.482419,0.00129032,0.517581,0.524749,0.304154,0.449864,0.118417,0.25145,0.188446,0.227508,2026-09-29 03:54:51,140,6.1,0.292857,0,0,64.6282,0.307853,0,0.0322581,0.870968,0.0967742,0,2,47,0,0.119375
Green_YC310_Pro_5B88_260929_035627.csv,2,49,30,26,38600.2,0.114401,4.97068e+06,0.394136,33.39,0.04,0.565,0.006667,0.0613333,0.483161,4.30333e-05,0.516839,0.526603,0.300641,0.446351,0.116149,0.254031,0.187403,0.223884,2026-09-29 03:57:08,137,6.1,0.292857,0,0,63.6492,0.295615,0,0,0.933333,0.0666667,0,2,48,0,0.121333
Green_YC310_Pro_5B88_260929_035846.csv,2,50,30,29,37390.2,0.109561,4.97983e+06,0.395965,33.41,0.02,0.568333,0.00333333,0.0606452,0.471296,-0.000688139,0.528704,0.528457,0.298455,0.444165,0.120175,0.254232,0.187309,0.223589,2026-09-29 03:59:27,139,6.1,0.292857,0,0,63.6943,0.296179,0,0,0.967742,0.0322581,0,2,49,0,0.12
Green_YC310_Pro_5B88_260929_040105.csv,2,51,30,28,43701.6,0.134806,5.33452e+06,0.466904,33.44,0.03,0.573333,0.00500033,0.06,0.460172,-0.0006452,0.539828,0.549232,0.316802,0.462512,0.1242,0.254958,0.201849,0.237403,2026-09-29 04:01:48,141,6.1,0.292857,0,0,64.2857,0.303571,0,0,1,0,0,2,50,0,0.12129
Green_YC310_Pro_5B88_260929_040324.csv,2,52,30,29,44709.7,0.138839,5.33715e+06,0.467431,33.48,0.04,0.58,0.006667,0.06,0.460172,4.16334e-17,0.539828,0.55376,0.31932,0.46503,0.128804,0.256088,0.203588,0.238012,2026-09-29 04:04:04,136,6.3,0.307143,0,0,65.312,0.3164,0,0,1,0,0,2,51,0,0.11871
Green_YC310_Pro_5B88_260929_040542.csv,2,53,32,23,44156.1,0.136624,5.471e+06,0.4942,33.47,-0.01,0.578333,-0.00166667,0.0575758,0.418375,-0.00242424,0.581625,0.55376,0.317173,0.462882,0.133408,0.254591,0.203464,0.239385,2026-09-29 04:06:23,139,6.3,0.307143,0,0,67.0391,0.337989,0,0.151515,0.818182,0.030303,0,2,52,0,0.119394
Green_YC310_Pro_5B88_260929_040803.csv,2,54,31,15,41994.3,0.127977,5.46673e+06,0.493346,33.47,0,0.578333,3.33333e-07,0.0613333,0.483161,0.00375753,0.516839,0.55376,0.315025,0.460735,0.136912,0.253851,0.203007,0.239668,2026-09-29 04:08:45,142,6.3,0.307143,0,0,65.9574,0.324468,0,0,0.933333,0.0666667,0,2,53,0,0.116774
Green_YC310_Pro_5B88_260929_041021.csv,2,55,29,28,46246.7,0.144987,5.42393e+06,0.484786,33.46,-0.01,0.576667,-0.00166633,0.06,0.460172,-0.0013333,0.539828,0.549232,0.309307,0.456206,0.140416,0.252585,0.199587,0.237514,2026-09-29 04:11:05,140,6.3,0.307143,0,0,63.3649,0.292061,0,0,1,0,0,2,54,0,0.118
Green_YC310_Pro_5B88_260929_041241.csv,2,56,30,26,47071.3,0.148285,5.60547e+06,0.521095,33.46,0,0.576667,-3.33333e-07,0.06,0.460172,4.16334e-17,0.539828,0.532165,0.30359,0.450489,0.15037,0.250483,0.188812,0.228841,2026-09-29 04:13:22,137,6.3,0.307143,0,0,64.6552,0.30819,0,0,1,0,0,2,55,0,0.116774
Green_YC310_Pro_5B88_260929_041503.csv,2,57,30,28,49459.5,0.157838,5.60549e+06,0.521099,33.47,0.01,0.578333,0.00166633,0.0613333,0.483161,0.00133333,0.516839,0.537026,0.321183,0.45535,0.141774,0.252824,0.194947,0.232635,2026-09-29 04:15:45,143,6.3,0.307143,0,0,64.8415,0.310519,0,0,0.933333,0.0666667,0,2,56,0,0.120645
Green_YC310_Pro_5B88_260929_041718.csv,2,58,31,18,39278.7,0.117115,5.71823e+06,0.543645,33.47,0,0.578333,3.33333e-07,0.0587097,0.437925,-0.00262362,0.562075,0.542053,0.32111,0.455277,0.138292,0.253559,0.197746,0.234699,2026-09-29 04:18:21,156,6.3,0.307143,0,0,67.5872,0.34484,0,0.0967742,0.870968,0.0322581,0,2,57,0,0.114375
Green_YC310_Pro_5B88_260929_041937.csv,2,59,30,24,46018.8,0.144075,5.86671e+06,0.573343,33.47,0,0.578333,3.33333e-07,0.06,0.460172,0.0012903,0.539828,0.547244,0.316327,0.450494,0.139922,0.253215,0.199635,0.236932,2026-09-29 04:20:20,119,6.3,0.307143,0,0,63.7845,0.297306,0,0.037037,0.925926,0.037037,0,2,58,0,0.116129
Green_YC310_Pro_5B88_260929_042156.csv,2,60,30,28,50682.3,0.162729,5.8127e+06,0.562539,33.47,0,0.578333,3.33333e-07,0.06,0.460172,4.16334e-17,0.539828,0.532644,0.306834,0.441002,0.15019,0.251047,0.189438,0.228903,2026-09-29 04:22:37,137,6.3,0.307143,0,0,64.4238,0.305297,0,0,1,0,0,2,59,0,0.116129
Green_YC310_Pro_5B88_260929_042415.csv,2,61,31,30,46980,0.14792,5.81997e+06,0.563995,33.48,0.01,0.58,0.001667,0.06125,0.481724,0.00125,0.518276,0.52546,0.312996,0.447163,0.15345,0.250884,0.186393,0.226021,2026-09-29 04:24:56,139,6.3,0.307143,0,0,65.309,0.316362,0,0,0.9375,0.0625,0,2,60,0,0.119375
Green_YC310_Pro_5B88_260929_042634.csv,2,62,31,29,48807.8,0.155231,5.82044e+06,0.564089,33.49,0.01,0.581667,0.00166667,0.06125,0.481724,4.16334e-17,0.518276,0.513966,0.316363,0.45053,0.149264,0.252293,0.18034,0.218559,2026-09-29 04:27:16,140,6.3,0.307143,0,0,65.2632,0.31579,0,0,0.9375,0.0625,0,2,61,0,0.118125
Green_YC310_Pro_5B88_260929_042852.csv,2,63,31,26,45733.4,0.142934,5.87136e+06,0.574272,33.49,0,0.581667,-3.33333e-07,0.062,0.494655,0.00075,0.505345,0.519713,0.310057,0.444224,0.14464,0.25327,0.182216,0.219458,2026-09-29 04:29:33,137,6.3,0.307143,0,0,65.4008,0.31751,0,0,0.9,0.1,0,2,62,0,0.119375
Green_YC310_Pro_5B88_260929_043112.csv,2,64,30,25,43938.7,0.135755,6.12417e+06,0.624834,33.49,0,0.581667,-3.33333e-07,0.06,0.460172,-0.002,0.539828,0.525262,0.296871,0.431038,0.131158,0.256117,0.182516,0.216911,2026-09-29 04:31:54,141,6.3,0.307143,0,0,63.2022,0.290027,0,0,1,0,0,2,63,0,0.115484
Green_YC310_Pro_5B88_260929_043334.csv,2,65,29,26,39652.1,0.118608,4.80154e+06,0.360308,33.48,-0.01,0.58,-0.001667,0.0613793,0.483954,0.00137931,0.516046,0.5265,0.286239,0.420406,0.120483,0.257845,0.181279,0.213946,2026-09-29 04:34:15,141,6.1,0.292857,0,0,62.0985,0.276231,0,0,0.931034,0.0689655,0,2,64,0,0.122667
Green_YC310_Pro_5B88_260929_043552.csv,2,66,30,23,36771.3,0.107085,5.34751e+06,0.469503,33.47,-0.01,0.578333,-0.00166667,0.0626667,0.506149,0.00128737,0.493851,0.527693,0.281758,0.415925,0.11607,0.258252,0.181326,0.213587,2026-09-29 04:36:33,138,6.1,0.292857,0,0,62.8492,0.285615,0,0,0.9,0.0666667,0.0333333,2,65,0,0.12069
Green_YC310_Pro_5B88_260929_043810.csv,2,67,29,24,40160.3,0.120641,5.27629e+06,0.455258,33.45,-0.02,0.575,-0.003333,0.0607692,0.473435,-0.00189747,0.526565,0.532017,0.288382,0.42025,0.1172,0.256962,0.185825,0.219375,2026-09-29 04:38:51,138,6.1,0.292857,0,0,62.3656,0.27957,0,0,0.961538,0.0384615,0,2,66,0,0.11931
Green_YC310_Pro_5B88_260929_044027.csv,2,68,30,14,40108.3,0.120433,5.26151e+06,0.452302,33.43,-0.02,0.571667,-0.00333333,0.06,0.460172,-0.0007692,0.539828,0.535407,0.293059,0.423639,0.123052,0.254675,0.189386,0.225222,2026-09-29 04:41:08,137,6.1,0.292857,0,0,64.7017,0.308771,0,0,1,0,0,2,67,0,0.116129
Green_YC310_Pro_5B88_260929_044247.csv,2,69,29,25,42675.6,0.130702,5.26621e+06,0.453241,33.41,-0.02,0.568333,-0.00333367,0.06,0.460172,4.16334e-17,0.539828,0.535996,0.297899,0.424228,0.12071,0.254119,0.191413,0.227806,2026-09-29 04:43:31,143,6.1,0.292857,0,0,62.01,0.275125,0,0,1,0,0,2,68,0,0.117241
Green_YC310_Pro_5B88_260929_044508.csv,2,70,29,25,39158.8,0.116635,5.31846e+06,0.463691,33.41,0,0.568333,3.33333e-07,0.0606667,0.471667,0.000666667,0.528333,0.534719,0.309801,0.43613,0.110995,0.25617,0.193231,0.227573,2026-09-29 04:45:49,138,6.1,0.292857,0,0,63.643,0.295538,0,0,0.966667,0.0333333,0,2,69,0,0.116667
Green_YC310_Pro_5B88_260929_044725.csv,2,71,32,20,32821.8,0.0912873,5.37771e+06,0.475541,33.41,0,0.568333,3.33333e-07,0.06,0.460172,-0.0006667,0.539828,0.530568,0.309249,0.435579,0.11173,0.256015,0.19079,0.225287,2026-09-29 04:48:06,137,5.9,0.278571,0,0,67.5581,0.344476,0,0,1,0,0,2,70,0,0.116364
Green_YC310_Pro_5B88_260929_044944.csv,2,72,29,25,43227.1,0.132909,5.23788e+06,0.447576,33.39,-0.02,0.565,-0.003333,0.0614815,0.485715,0.00148148,0.514285,0.528476,0.305834,0.433486,0.115575,0.254152,0.189557,0.225917,2026-09-29 04:50:25,139,5.9,0.278571,0,0,61.8777,0.273471,0,0,0.925926,0.0740741,0,2,71,0,0.120667
Green_YC310_Pro_5B88_260929_045202.csv,2,73,29,23,41137.4,0.12455,5.29262e+06,0.458525,33.38,-0.01,0.563333,-0.00166667,0.06,0.460172,-0.0014815,0.539828,0.531314,0.299555,0.427207,0.122528,0.252158,0.190143,0.228497,2026-09-29 04:52:43,138,5.9,0.278571,0,0,62.7706,0.284633,0,0,1,0,0,2,72,0,0.118
Green_YC310_Pro_5B88_260929_045422.csv,2,74,31,18,38037,0.112148,5.27447e+06,0.454893,33.36,-0.02,0.56,-0.003333,0.06,0.460172,4.16334e-17,0.539828,0.543791,0.306002,0.433653,0.119391,0.25177,0.19917,0.237912,2026-09-29 04:55:02,139,5.9,0.278571,0,0,66.0511,0.325639,0,0,1,0,0,2,73,0,0.11375
Green_YC310_Pro_5B88_260929_045641.csv,2,75,30,25,40874.6,0.123498,5.2752e+06,0.455039,33.34,-0.02,0.556667,-0.00333333,0.0593103,0.448282,-0.000689655,0.551718,0.510299,0.313786,0.441437,0.111041,0.252482,0.182738,0.220768,2026-09-29 04:57:29,147,5.9,0.278571,0,0,63.4249,0.292811,0,0.0344828,0.965517,0,0,2,74,0,0.114194
Green_YC310_Pro_5B88_260929_045903.csv,2,76,32,19,31254.6,0.0850183,5.27225e+06,0.45445,33.15,-0.19,0.525,-0.031667,0.06125,0.481724,0.0019397,0.518276,0.476808,0.320235,0.447887,0.112117,0.242271,0.171689,0.219931,2026-09-29 04:59:51,142,5.9,0.278571,0,0,67.5105,0.343881,0,0.0625,0.8125,0.125,0,2,75,0,0.133571
Green_YC310_Pro_5B88_260929_050121.csv,2,77,30,20,37158.3,0.108633,5.79005e+06,0.55801,32.97,-0.18,0.495,-0.03,0.068,0.598103,0.00675,0.401897,0.464995,0.324014,0.451665,0.127836,0.229493,0.171879,0.232898,2026-09-29 05:02:09,138,5.9,0.278571,0,0,64.5624,0.30703,0,0,0.6,0.4,0,2,76,0,0.134483
Green_YC310_Pro_5B88_260929_050340.csv,2,78,30,25,52663.2,0.170653,5.61764e+06,0.523528,32.88,-0.09,0.48,-0.015,0.0658065,0.560284,-0.00219355,0.439716,0.459611,0.32799,0.455641,0.129943,0.224318,0.17271,0.238904,2026-09-29 05:04:27,138,5.6,0.257143,0,0,64.3317,0.304146,0,0,0.709677,0.290323,0,2,77,0,0.132903
Green_YC310_Pro_5B88_260929_050557.csv,2,79,33,8,32834.8,0.0913391,5.8908e+06,0.57816,32.81,-0.07,0.468333,-0.0116667,0.0678788,0.596014,0.00207229,0.403986,0.446554,0.327867,0.455519,0.131001,0.220416,0.167705,0.237801,2026-09-29 05:06:48,141,5.6,0.257143,0,0,68.4647,0.355809,0,0.030303,0.575758,0.363636,0.030303,2,78,0,0.14069
Green_YC310_Pro_5B88_260929_050816.csv,2,80,30,22,52668.1,0.170673,5.48945e+06,0.497889,32.75,-0.06,0.458333,-0.00999967,0.0645161,0.538037,-0.00336267,0.461963,0.44682,0.323647,0.451299,0.121753,0.219216,0.168956,0.240252,2026-09-29 05:08:57,129,5.6,0.257143,0,0,63.3803,0.292254,0,0,0.774194,0.225806,0,2,79,0,0.127742
Green_YC310_Pro_5B88_260929_051035.csv,2,81,29,20,47301.5,0.149206,5.47494e+06,0.494988,32.71,-0.04,0.451667,-0.00666633,0.0646667,0.540632,0.000150567,0.459368,0.468912,0.303777,0.431428,0.103246,0.221022,0.17843,0.24792,2026-09-29 05:11:16,139,5.6,0.257143,0,0,63.3188,0.291485,0,0,0.766667,0.233333,0,2,80,0,0.127333
Green_YC310_Pro_5B88_260929_051253.csv,2,82,38,27,18954.9,0.0358197,4.95239e+06,0.390478,32.81,0.1,0.468333,0.0166663,0.0548718,0.371755,-0.00979491,0.628245,0.484244,0.29464,0.422292,0.0855891,0.230006,0.181737,0.242244,2026-09-29 05:13:37,141,5.6,0.257143,0,0,79.7761,0.497201,0,0.282051,0.692308,0.025641,0,2,81,0,0.105405
Green_YC310_Pro_5B88_260929_051513.csv,2,83,30,26,33966.3,0.0958652,4.93939e+06,0.387878,32.89,0.08,0.481667,0.0133337,0.06,0.460172,0.0051282,0.539828,0.499575,0.296425,0.424076,0.0679319,0.237938,0.188036,0.24061,2026-09-29 05:15:54,137,5.6,0.257143,0,0,63.4249,0.292811,0,0.0333333,0.933333,0.0333333,0,2,82,0,0.12
Green_YC310_Pro_5B88_260929_051733.csv,2,84,30,23,35011,0.100044,5.32765e+06,0.46553,32.91,0.02,0.485,0.003333,0.0606897,0.472063,0.000689655,0.527937,0.514907,0.298209,0.425861,0.0861965,0.235132,0.196335,0.251715,2026-09-29 05:18:40,166,5.3,0.235714,0,0,64.0114,0.300142,0,0.0344828,0.896552,0.0689655,0,2,83,0,0.12
Green_YC310_Pro_5B88_260929_051951.csv,2,85,29,26,32653.4,0.0906136,5.32979e+06,0.465958,32.93,0.02,0.488333,0.00333333,0.0613793,0.483954,0.00068961,0.516046,0.524964,0.301129,0.428781,0.0981665,0.233656,0.201922,0.258779,2026-09-29 05:20:33,113,5.3,0.235714,0,0,63.8298,0.297872,0,0,0.931034,0.0689655,0,2,84,0,0.121333
Green_YC310_Pro_5B88_260929_052210.csv,2,86,30,27,36913.2,0.107653,5.5413e+06,0.50826,32.94,0.01,0.49,0.001667,0.06,0.460172,-0.0013793,0.539828,0.52554,0.305372,0.429356,0.103842,0.232983,0.202815,0.260344,2026-09-29 05:22:51,138,5.3,0.235714,0,0,64.4699,0.305874,0,0,1,0,0,2,85,0,0.114839
Green_YC310_Pro_5B88_260929_052429.csv,2,87,31,28,39267.6,0.11707,5.71442e+06,0.542883,32.93,-0.01,0.488333,-0.00166667,0.0619355,0.493543,0.00193548,0.506457,0.517918,0.32828,0.452264,0.0879915,0.235804,0.203757,0.258465,2026-09-29 05:25:13,142,5.3,0.235714,0,0,64.9895,0.312369,0,0,0.903226,0.0967742,0,2,86,0,0.119355
Green_YC310_Pro_5B88_260929_052650.csv,2,88,33,18,20765.7,0.0430627,4.68223e+06,0.336445,32.93,0,0.488333,3.33333e-07,0.0612121,0.481071,-0.000723379,0.518929,0.515428,0.334902,0.458886,0.0689099,0.239834,0.203772,0.254451,2026-09-29 05:27:34,141,5.3,0.235714,0,0,69.3277,0.366596,0,0.030303,0.878788,0.0909091,0,2,87,0,0.115
Green_YC310_Pro_5B88_260929_052907.csv,2,89,29,27,28111.1,0.0724442,4.68624e+06,0.337248,32.93,0,0.488333,3.33333e-07,0.0627586,0.507735,0.00154652,0.492265,0.519142,0.33125,0.455235,0.0589551,0.241936,0.205075,0.253651,2026-09-29 05:29:49,135,5.3,0.235714,0,0,61.3973,0.267466,0,0,0.862069,0.137931,0,2,88,0,0.122
Green_YC310_Pro_5B88_260929_053128.csv,2,90,31,15,21967.4,0.0478694,4.63737e+06,0.327475,32.91,-0.02,0.485,-0.003333,0.0612903,0.482419,-0.00146828,0.517581,0.521103,0.323149,0.447133,0.0609814,0.240457,0.205115,0.25517,2026-09-29 05:32:10,141,5.3,0.235714,0,0,67.0996,0.338745,0,0.0322581,0.870968,0.0967742,0,2,89,0,0.118125
Green_YC310_Pro_5B88_260929_053348.csv,2,91,31,20,27552.4,0.0702094,4.64815e+06,0.329629,32.91,0,0.485,-5.55112e-16,0.0606667,0.471667,-0.000623633,0.528333,0.528581,0.320871,0.444856,0.0626305,0.240109,0.208818,0.259221,2026-09-29 05:34:31,141,5.3,0.235714,0,0,64.5833,0.307291,0,0.0333333,0.9,0.0666667,0,2,90,0,0.121333
Green_YC310_Pro_5B88_260929_053607.csv,2,92,30,23,29347.9,0.0773916,4.69175e+06,0.33835,32.9,-0.01,0.483333,-0.00166667,0.06,0.460172,-0.0006667,0.539828,0.524955,0.318682,0.442667,0.0617746,0.239764,0.206655,0.257403,2026-09-29 05:36:49,138,5.4,0.242857,0,0,64.2398,0.302998,0,0,1,0,0,2,91,0,0.118065
Green_YC310_Pro_5B88_260929_053825.csv,2,93,32,28,21325.4,0.0453017,4.77864e+06,0.355729,32.89,-0.01,0.481667,-0.00166633,0.0619355,0.493543,0.00193548,0.506457,0.520728,0.314565,0.43855,0.0674302,0.238044,0.203744,0.256212,2026-09-29 05:39:06,137,5.4,0.242857,0,0,66.5742,0.332178,0,0,0.903226,0.0967742,0,2,92,0,0.120625
Green_YC310_Pro_5B88_260929_054042.csv,2,94,29,19,35431.6,0.101726,4.64035e+06,0.328071,32.87,-0.02,0.478333,-0.00333367,0.0615385,0.486698,-0.000397038,0.513302,0.515899,0.317584,0.441568,0.073965,0.235613,0.202349,0.257248,2026-09-29 05:41:24,138,5.4,0.242857,0,0,63.2727,0.290909,0,0,0.923077,0.0769231,0,2,93,0,0.118667
Green_YC310_Pro_5B88_260929_054308.csv,2,95,29,23,31680.8,0.0867234,4.65284e+06,0.330569,32.86,-0.01,0.476667,-0.00166633,0.0606897,0.472063,-0.000848845,0.527937,0.534206,0.329665,0.453649,0.0748672,0.234897,0.215507,0.271121,2026-09-29 05:43:50,146,5.4,0.242857,0,0,63.3188,0.291485,0,0,0.965517,0.0344828,0,2,94,0,0.120667
Green_YC310_Pro_5B88_260929_054520.csv,2,96,33,19,22002.1,0.0480085,4.69622e+06,0.339244,32.85,-0.01,0.475,-0.001667,0.05875,0.438621,-0.0019397,0.561379,0.537475,0.336982,0.456918,0.0657913,0.236288,0.219228,0.273452,2026-09-29 05:46:02,132,6.3,0.307143,0,0,69.4737,0.368421,0,0.09375,0.875,0.03125,0,2,95,0,0.116364
Green_YC310_Pro_5B88_260929_054739.csv,2,97,30,19,22672.6,0.0506905,4.80382e+06,0.360765,32.83,-0.02,0.471667,-0.00333333,0.0613333,0.483161,0.00258333,0.516839,0.537313,0.340205,0.46014,0.0567153,0.237154,0.22049,0.273849,2026-09-29 05:48:22,140,6.3,0.307143,0,0,65.0289,0.312861,0,0,0.933333,0.0666667,0,2,96,0,0.11871
Green_YC310_Pro_5B88_260929_054959.csv,2,98,32,9,27861.7,0.0714468,4.73134e+06,0.346268,32.82,-0.01,0.47,-0.001667,0.06,0.460172,-0.0013333,0.539828,0.533721,0.339331,0.459267,0.0623001,0.235449,0.218626,0.273689,2026-09-29 05:50:42,140,6.3,0.307143,0,0,67.6056,0.34507,0,0.03125,0.9375,0.03125,0,2,97,0,0.121818
Green_YC310_Pro_5B88_260929_055222.csv,2,99,32,14,28140.3,0.0725613,4.79886e+06,0.359773,32.82,0,0.47,5.55112e-17,0.059375,0.449397,-0.000625,0.550603,0.541384,0.350067,0.46693,0.0735333,0.233077,0.225203,0.282638,2026-09-29 05:53:04,142,6.3,0.307143,0,0,69.2641,0.365801,0,0.15625,0.75,0.0625,0.03125,2,98,0,0.117931
Green_YC310_Pro_5B88_260929_055441.csv,2,100,37,9,29147.9,0.0765918,4.73904e+06,0.347809,32.76,-0.06,0.46,-0.01,0.057037,0.409087,-0.00233796,0.590913,0.539828,0.34507,0.465374,0.0765918,0.229278,0.225268,0.286502,2026-09-29 05:56:04,180,6.3,0.307143,0,0,83.3333,0.541666,0,0.296296,0.592593,0.0740741,0.037037,2,99,0,0.115789
