Sheet Name,Segment,Index,total_beat_count,Sel_Min,diff,diff_n,mean,mean_n,temp,temp_raw_diff,temp_n,temp_diff,rise_low,rise_low_n,rise_low_diff,rise_low_n_inv,rise_low_n_inv_center,HR_n_center,HR_n_center_lim,diff_n_center,diff_anker,rl_inv_corr,inv_corr,datetime,time_gap_seconds,CGM,CGM_n,SMBG,SMBG_n,HR,HR_n,r20,r40,r60,r80,r100
Green_YC310_Pro_5B88_260927_030516.csv,1,1,35,8,10445.7,0.00178271,4.46568e+06,0.293137,32.65,0,0.441667,0,0.0627778,0.508065,0,0.491935,0.491935,0.429532,0.429532,0.00178271,0.239295,0.333758,0.357143,2026-09-27 03:05:47,0,4.7,0.192857,0,0,74.3626,0.429532,0,0.111111,0.638889,0.25,0
Green_YC310_Pro_5B88_260927_030734.csv,1,2,33,22,14712.4,0.0188497,4.53216e+06,0.306433,32.57,-0.08,0.428333,-0.0133337,0.0623529,0.50074,-0.000424859,0.49926,0.50696,0.404437,0.404437,0.0246502,0.230262,0.34181,0.374227,2026-09-27 03:08:08,0,4.7,0.192857,0,0,70.9169,0.386461,0,0.0588235,0.764706,0.176471,0
Green_YC310_Pro_5B88_260927_030953.csv,1,3,34,16,23329.5,0.0533181,4.64117e+06,0.328234,32.51,-0.06,0.418333,-0.00999967,0.0605882,0.470314,-0.00176466,0.529686,0.549197,0.394763,0.394763,0.0470641,0.222376,0.366295,0.406598,2026-09-27 03:10:26,0,4.7,0.192857,0,0,73.2233,0.415291,0,0.117647,0.735294,0.147059,0
Green_YC310_Pro_5B88_260927_031211.csv,1,4,34,29,27256.1,0.0690244,4.70012e+06,0.340023,32.5,-0.01,0.416667,-0.00166633,0.0554286,0.381355,-0.00515963,0.618645,0.54593,0.382536,0.391496,0.0607602,0.218958,0.363323,0.407044,2026-09-27 03:12:58,0,5.7,0.264286,0,0,72.3918,0.404898,0,0.228571,0.771429,0,0
Green_YC310_Pro_5B88_260927_031431.csv,1,5,31,18,26548,0.0661921,4.61493e+06,0.322987,32.47,-0.03,0.411667,-0.00500033,0.0612903,0.482419,0.00586172,0.517581,0.542663,0.371242,0.388229,0.0678038,0.215895,0.361131,0.407916,2026-09-27 03:15:03,0,5.7,0.264286,0,0,67.9825,0.349781,0,0.0322581,0.870968,0.0967742,0
Green_YC310_Pro_5B88_260927_031652.csv,1,6,33,18,26987.2,0.0679487,4.47175e+06,0.29435,32.47,0,0.411667,-3.33333e-07,0.0642424,0.533318,0.00295212,0.466682,0.522959,0.373189,0.390176,0.0681949,0.215812,0.350331,0.397199,2026-09-27 03:17:23,0,5.6,0.257143,0,0,70.5128,0.38141,0,0.030303,0.757576,0.181818,0.030303
Green_YC310_Pro_5B88_260927_031940.csv,1,7,33,24,27611,0.070444,4.45475e+06,0.29095,32.43,-0.04,0.405,-0.006667,0.061875,0.4925,-0.0023674,0.5075,0.503255,0.381785,0.398772,0.0724827,0.212805,0.341668,0.391543,2026-09-27 03:20:13,0,5.9,0.278571,0,0,70.4125,0.380156,0,0.03125,0.84375,0.125,0
Green_YC310_Pro_5B88_260927_032158.csv,1,8,34,22,29763.8,0.0790553,4.44873e+06,0.289747,32.45,0.02,0.408333,0.00333333,0.06,0.460172,-0.001875,0.539828,0.513705,0.376575,0.393562,0.0731958,0.213705,0.346224,0.395199,2026-09-27 03:22:29,0,6.1,0.292857,0,0,70.8333,0.385416,0,0.0571429,0.885714,0.0571429,0
Green_YC310_Pro_5B88_260927_032417.csv,1,9,32,24,29177.2,0.0767087,4.44657e+06,0.289314,32.47,0.02,0.411667,0.00333367,0.0612121,0.481071,0.00121212,0.518929,0.524154,0.373077,0.390064,0.073909,0.214605,0.350987,0.399061,2026-09-27 03:24:47,0,6.1,0.292857,0,0,68.4248,0.35531,0,0.030303,0.878788,0.0909091,0
Green_YC310_Pro_5B88_260927_032637.csv,1,10,33,15,27190.7,0.0687626,4.46707e+06,0.293414,32.5,0.03,0.416667,0.00499967,0.0618182,0.49152,0.000606082,0.50848,0.524154,0.378504,0.395491,0.0726742,0.216443,0.350642,0.396879,2026-09-27 03:27:10,0,6.3,0.307143,0,0,70.5631,0.382039,0,0.030303,0.848485,0.121212,0
Green_YC310_Pro_5B88_260927_032855.csv,1,11,34,22,28837.7,0.075351,4.44181e+06,0.288362,32.54,0.04,0.423333,0.00666633,0.06,0.460172,-0.0018182,0.539828,0.522231,0.368338,0.393568,0.0712979,0.218835,0.347005,0.390849,2026-09-27 03:29:29,0,6.3,0.307143,0,0,72.1358,0.401698,0,0.147059,0.705882,0.147059,0
Green_YC310_Pro_5B88_260927_033114.csv,1,12,34,22,26431.7,0.065727,4.54717e+06,0.309434,32.65,0.11,0.441667,0.0183337,0.0606061,0.470622,0.000606061,0.529378,0.518385,0.358172,0.389721,0.0705678,0.22477,0.339957,0.377867,2026-09-27 03:31:45,0,6.2,0.3,0,0,71.9831,0.399789,0,0.0606061,0.848485,0.0909091,0
Green_YC310_Pro_5B88_260927_033404.csv,1,13,31,22,28866.5,0.0754662,4.43586e+06,0.287173,32.68,0.03,0.446667,0.00499967,0.063125,0.514052,0.0025189,0.485948,0.499227,0.342506,0.374056,0.072319,0.225977,0.326338,0.363042,2026-09-27 03:34:35,0,6,0.285714,0,0,65.1717,0.314646,0,0.03125,0.78125,0.1875,0
Green_YC310_Pro_5B88_260927_033623.csv,1,14,32,17,28154.2,0.0726168,4.41923e+06,0.283846,32.72,0.04,0.453333,0.00666633,0.0633333,0.517644,0.000208333,0.482356,0.482893,0.321448,0.357722,0.0768581,0.22712,0.313316,0.348876,2026-09-27 03:36:54,0,6,0.285714,0,0,68.3761,0.354701,0,0.0333333,0.766667,0.2,0
Green_YC310_Pro_5B88_260927_033842.csv,1,15,28,26,31066.3,0.0842651,4.39503e+06,0.279007,32.73,0.01,0.455,0.001667,0.0634483,0.519625,0.000114976,0.480375,0.476222,0.294997,0.351051,0.0824912,0.226456,0.306055,0.342279,2026-09-27 03:39:13,0,6.1,0.292857,0,0,61.2245,0.265306,0,0,0.827586,0.172414,0
Green_YC310_Pro_5B88_260927_034101.csv,1,16,27,23,33091.4,0.0923656,4.47364e+06,0.294729,32.75,0.02,0.458333,0.00333333,0.0642857,0.534064,0.000837414,0.465936,0.476005,0.276603,0.350834,0.0884254,0.226254,0.303047,0.339473,2026-09-27 03:41:32,0,6.2,0.3,0,0,58.8235,0.235294,0,0,0.785714,0.214286,0
Green_YC310_Pro_5B88_260927_034319.csv,1,17,31,26,32604.9,0.0904194,4.40266e+06,0.280533,32.75,0,0.458333,3.33333e-07,0.064,0.529138,-0.0002857,0.470862,0.475788,0.264,0.350617,0.0954756,0.224765,0.301404,0.339319,2026-09-27 03:43:51,0,6.2,0.3,0,0,63.9615,0.299519,0,0,0.8,0.2,0
Green_YC310_Pro_5B88_260927_034538.csv,1,18,27,26,38981.9,0.115928,5.3355e+06,0.4671,32.74,-0.01,0.456667,-0.00166633,0.0628571,0.509433,-0.00114286,0.490567,0.50425,0.273178,0.359795,0.103642,0.222515,0.318784,0.358949,2026-09-27 03:46:09,0,6.2,0.3,0,0,57.7334,0.221668,0,0,0.857143,0.142857,0
Green_YC310_Pro_5B88_260927_034828.csv,1,19,32,27,39215.9,0.116864,5.25102e+06,0.450203,32.71,-0.03,0.451667,-0.00500033,0.0593333,0.448678,-0.00352377,0.551322,0.503361,0.292764,0.379381,0.106199,0.220399,0.32165,0.363931,2026-09-27 03:49:03,0,6.2,0.3,0,0,67.9887,0.349859,0,0.0666667,0.9,0.0333333,0
Green_YC310_Pro_5B88_260927_035047.csv,1,20,32,29,34523,0.0980918,5.17104e+06,0.434208,32.68,-0.03,0.446667,-0.00500033,0.0593939,0.449723,6.06394e-05,0.550277,0.502471,0.306765,0.393382,0.109717,0.218079,0.323842,0.368442,2026-09-27 03:51:18,0,6.2,0.3,0,0,67.1798,0.339747,0,0.0606061,0.909091,0.030303,0
Green_YC310_Pro_5B88_260927_035305.csv,1,21,28,25,41455.5,0.125822,5.32268e+06,0.464537,32.66,-0.02,0.443333,-0.00333367,0.065,0.546379,0.0056061,0.453621,0.473097,0.254795,0.364008,0.116339,0.21563,0.301787,0.348836,2026-09-27 03:53:35,0,6.2,0.3,0,0,58.4551,0.230689,0,0,0.75,0.25,0
Green_YC310_Pro_5B88_260927_035524.csv,1,22,26,23,38904.8,0.115619,5.4158e+06,0.48316,32.64,-0.02,0.44,-0.003333,0.0644444,0.536801,-0.000555556,0.463199,0.453621,0.220926,0.344531,0.120616,0.213676,0.287459,0.336463,2026-09-27 03:55:55,0,6.2,0.3,0,0,55.516,0.19395,0,0,0.777778,0.222222,0
Green_YC310_Pro_5B88_260927_035746.csv,1,23,27,24,40548.1,0.122192,5.63275e+06,0.526551,32.61,-0.03,0.435,-0.005,0.0664286,0.57101,0.00198417,0.42899,0.444042,0.201677,0.334953,0.120408,0.212143,0.280772,0.331308,2026-09-27 03:58:16,0,6.2,0.3,0,0,57.1227,0.214034,0,0,0.678571,0.321429,0
Green_YC310_Pro_5B88_260927_040003.csv,1,24,26,25,40853.4,0.123414,5.65344e+06,0.530688,32.59,-0.02,0.431667,-0.00333333,0.0666667,0.575115,0.000238067,0.424885,0.439785,0.198797,0.332073,0.124885,0.210147,0.278707,0.331239,2026-09-27 04:00:35,0,6.2,0.3,0,0,54.7753,0.184691,0,0,0.666667,0.333333,0
Green_YC310_Pro_5B88_260927_040221.csv,1,25,26,20,42262.3,0.129049,5.58062e+06,0.516124,32.57,-0.02,0.428333,-0.00333367,0.0651852,0.549572,-0.00148151,0.450428,0.440849,0.197666,0.330942,0.120908,0.209936,0.279833,0.332577,2026-09-27 04:02:52,0,6.2,0.3,0,0,55.4371,0.192964,0,0,0.740741,0.259259,0
Green_YC310_Pro_5B88_260927_040510.csv,1,26,26,23,37301.5,0.109206,5.91713e+06,0.583426,32.54,-0.03,0.423333,-0.00499967,0.0659259,0.562344,0.000740726,0.437656,0.450428,0.202868,0.336144,0.11693,0.209199,0.286825,0.340305,2026-09-27 04:05:42,0,6.2,0.3,0,0,56.8513,0.210641,0,0,0.703704,0.296296,0
Green_YC310_Pro_5B88_260927_040730.csv,1,27,26,25,36202.7,0.104811,4.6844e+06,0.336881,32.53,-0.01,0.421667,-0.00166633,0.0637037,0.524029,-0.0022222,0.475971,0.460006,0.20807,0.341346,0.112578,0.209593,0.29315,0.346237,2026-09-27 04:08:01,0,6.2,0.3,0,0,56.7686,0.209608,0,0,0.814815,0.185185,0
Green_YC310_Pro_5B88_260927_040950.csv,1,28,26,25,37465.4,0.109861,4.75339e+06,0.350677,32.5,-0.03,0.416667,-0.00500033,0.0651852,0.549572,0.00148149,0.450428,0.469217,0.208763,0.342038,0.108227,0.208935,0.299391,0.353136,2026-09-27 04:10:21,0,6.2,0.3,0,0,56.4399,0.205499,0,0,0.740741,0.259259,0
Green_YC310_Pro_5B88_260927_041210.csv,1,29,26,22,37502.2,0.110009,4.76914e+06,0.353829,32.5,0,0.416667,-3.33333e-07,0.0623077,0.49996,-0.00287751,0.50004,0.468848,0.20107,0.34167,0.110742,0.208404,0.298256,0.352532,2026-09-27 04:12:41,0,6.2,0.3,0,0,57.0175,0.212719,0,0,0.884615,0.115385,0
Green_YC310_Pro_5B88_260927_041429.csv,1,30,26,22,38088.8,0.112355,5.20224e+06,0.440449,32.48,-0.02,0.413333,-0.00333367,0.0666667,0.575115,0.00435897,0.424885,0.456445,0.194014,0.334614,0.112771,0.206925,0.291126,0.346881,2026-09-27 04:15:00,0,6.2,0.3,0,0,53.8674,0.173343,0,0,0.666667,0.333333,0
Green_YC310_Pro_5B88_260927_041646.csv,1,31,26,25,38987,0.115948,5.20311e+06,0.440622,32.47,-0.01,0.411667,-0.00166633,0.0637037,0.524029,-0.002963,0.475971,0.450428,0.195982,0.336582,0.118221,0.205248,0.288327,0.345759,2026-09-27 04:17:17,0,6.2,0.3,0,0,56.3584,0.20448,0,0,0.814815,0.185185,0
Green_YC310_Pro_5B88_260927_041933.csv,1,32,26,25,41590,0.12636,5.14415e+06,0.42883,32.46,-0.01,0.41,-0.001667,0.0666667,0.575115,0.00296297,0.424885,0.447235,0.213817,0.354417,0.111533,0.206135,0.289025,0.345569,2026-09-27 04:20:05,0,6.2,0.3,0,0,56.8099,0.210124,0,0,0.666667,0.333333,0
Green_YC310_Pro_5B88_260927_042153.csv,1,33,27,24,37921.7,0.111687,5.15865e+06,0.43173,32.46,0,0.41,1.66533e-16,0.0644444,0.536801,-0.00222226,0.463199,0.439621,0.208335,0.348935,0.104844,0.207548,0.284099,0.339232,2026-09-27 04:22:24,0,6.2,0.3,0,0,58.1479,0.226849,0,0,0.777778,0.222222,0
Green_YC310_Pro_5B88_260927_042412.csv,1,34,26,19,30832.1,0.0833283,5.29998e+06,0.459995,32.46,0,0.41,1.66533e-16,0.0676923,0.592798,0.00324791,0.407202,0.434464,0.202852,0.343777,0.102237,0.208098,0.28055,0.335131,2026-09-27 04:24:46,0,6.2,0.3,0,0,55.0459,0.188074,0,0,0.615385,0.384615,0
Green_YC310_Pro_5B88_260927_042632.csv,1,35,25,21,39635,0.11854,5.20751e+06,0.441501,32.46,0,0.41,1.66533e-16,0.0646154,0.539748,-0.00307692,0.460252,0.436095,0.217406,0.345409,0.104239,0.207675,0.28322,0.338224,2026-09-27 04:27:04,0,6.2,0.3,0,0,54.3085,0.178856,0,0,0.769231,0.230769,0
Green_YC310_Pro_5B88_260927_042850.csv,1,36,27,18,34137.3,0.0965494,5.23966e+06,0.447931,32.46,0,0.41,1.66533e-16,0.0671429,0.583325,0.00252746,0.416675,0.444542,0.231959,0.353856,0.103963,0.207734,0.289706,0.344652,2026-09-27 04:29:21,0,6.2,0.3,0,0,57.9814,0.224768,0,0,0.642857,0.357143,0
Green_YC310_Pro_5B88_260927_043109.csv,1,37,30,17,36053.3,0.104213,5.14818e+06,0.429637,32.44,-0.02,0.406667,-0.00333333,0.0670968,0.582531,-4.61258e-05,0.417469,0.4567,0.277413,0.366013,0.0936469,0.208861,0.302667,0.356486,2026-09-27 04:31:40,0,6.2,0.3,0,0,63.3803,0.292254,0,0,0.645161,0.354839,0
Green_YC310_Pro_5B88_260927_043359.csv,1,38,31,19,27403.1,0.0696123,5.27294e+06,0.454589,32.43,-0.01,0.405,-0.001667,0.0625,0.503276,-0.0045968,0.496724,0.472208,0.264354,0.352954,0.0820529,0.210784,0.310109,0.362005,2026-09-27 04:34:30,0,6.2,0.3,0,0,65.2174,0.315217,0,0.03125,0.8125,0.15625,0
Green_YC310_Pro_5B88_260927_043618.csv,1,39,26,15,31193.5,0.084774,5.32827e+06,0.465654,32.42,-0.01,0.403333,-0.00166667,0.0644444,0.536801,0.00194444,0.463199,0.493273,0.277718,0.366319,0.0807144,0.210541,0.323852,0.37599,2026-09-27 04:36:50,0,6.2,0.3,0,0,56.0345,0.200431,0,0,0.777778,0.222222,0
Green_YC310_Pro_5B88_260927_043837.csv,1,40,33,15,30924.4,0.0836975,5.29814e+06,0.459628,32.41,-0.01,0.401667,-0.00166633,0.0594118,0.45003,-0.00503264,0.54997,0.501111,0.304478,0.374157,0.0880841,0.208459,0.331804,0.386024,2026-09-27 04:39:08,0,6.2,0.3,0,0,71.5835,0.394794,0,0.0882353,0.852941,0.0588235,0
Green_YC310_Pro_5B88_260927_044055.csv,1,41,27,22,32554.6,0.0902184,5.25268e+06,0.450537,32.4,-0.01,0.4,-0.001667,0.0657143,0.558695,0.00630249,0.441305,0.485105,0.284942,0.358151,0.0957807,0.206308,0.320816,0.377187,2026-09-27 04:41:26,0,6.2,0.3,0,0,58.2315,0.227894,0,0,0.714286,0.285714,0
Green_YC310_Pro_5B88_260927_044315.csv,1,42,29,18,36966.1,0.107864,5.3971e+06,0.47942,32.4,0,0.4,-2.77556e-16,0.0646667,0.540632,-0.00104763,0.459368,0.464041,0.246404,0.337087,0.103794,0.204616,0.304369,0.362432,2026-09-27 04:43:57,0,6.2,0.3,0,0,63.135,0.289187,0,0,0.766667,0.233333,0
Green_YC310_Pro_5B88_260927_044533.csv,1,43,25,20,36934.5,0.107738,5.41766e+06,0.483532,32.39,-0.01,0.398333,-0.00166667,0.0630769,0.513223,-0.00158978,0.486777,0.457094,0.253445,0.344128,0.110013,0.202778,0.301662,0.361564,2026-09-27 04:46:09,0,6.2,0.3,0,0,54.3478,0.179347,0,0,0.846154,0.153846,0
Green_YC310_Pro_5B88_260927_044822.csv,1,44,25,24,39178.3,0.116713,5.5966e+06,0.51932,32.38,-0.01,0.396667,-0.00166633,0.0669231,0.579536,0.00384618,0.420464,0.452105,0.291801,0.382484,0.103463,0.203635,0.30383,0.362875,2026-09-27 04:49:00,0,6.2,0.3,0,0,54.5058,0.181322,0,0,0.653846,0.346154,0
Green_YC310_Pro_5B88_260927_045041.csv,1,45,34,10,28171.6,0.0726864,5.62212e+06,0.524424,32.38,0,0.396667,-3.33333e-07,0.0634286,0.519286,-0.00349453,0.480714,0.455583,0.297957,0.385962,0.0936115,0.205716,0.306521,0.363485,2026-09-27 04:51:17,0,6.2,0.3,0,0,72.3404,0.404255,0,0.0571429,0.714286,0.228571,0
Green_YC310_Pro_5B88_260927_045300.csv,1,46,27,17,36679.5,0.106718,5.63539e+06,0.527078,32.38,0,0.396667,-3.33333e-07,0.0642857,0.534064,0.000857114,0.465936,0.465571,0.304113,0.392118,0.0914352,0.206175,0.312857,0.369362,2026-09-27 04:53:30,0,6.2,0.3,0,0,57.163,0.214537,0,0,0.785714,0.214286,0
Green_YC310_Pro_5B88_260927_045519.csv,1,47,26,20,37546,0.110184,5.64934e+06,0.529867,32.37,-0.01,0.395,-0.001667,0.0651852,0.549572,0.000899485,0.450428,0.483223,0.280533,0.368538,0.0920005,0.20553,0.32023,0.377379,2026-09-27 04:55:51,0,6.2,0.3,0,0,56.3177,0.203971,0,0,0.740741,0.259259,0
Green_YC310_Pro_5B88_260927_045738.csv,1,48,27,19,29969.2,0.079877,5.61458e+06,0.522915,32.35,-0.02,0.391667,-0.00333333,0.0625,0.503276,-0.0026852,0.496724,0.500875,0.256953,0.344958,0.0925658,0.20436,0.327936,0.386256,2026-09-27 04:58:07,0,6.2,0.3,0,0,58.4416,0.23052,0,0,0.875,0.125,0
Green_YC310_Pro_5B88_260927_045958.csv,1,49,30,12,28736.9,0.0749476,5.64238e+06,0.528476,32.34,-0.01,0.39,-0.001667,0.0593333,0.448678,-0.00316667,0.551322,0.482045,0.242057,0.330062,0.101849,0.201874,0.315927,0.376733,2026-09-27 05:00:26,0,6.2,0.3,0,0,64.7948,0.309935,0,0.133333,0.766667,0.1,0
Green_YC310_Pro_5B88_260927_050216.csv,1,50,25,24,44508.9,0.138035,5.89512e+06,0.579023,32.32,-0.02,0.386667,-0.00333333,0.0684615,0.606061,0.00912824,0.393939,0.453686,0.213895,0.3019,0.105671,0.200016,0.297314,0.359977,2026-09-27 05:02:45,0,6.2,0.3,0,0,52.7426,0.159283,0,0,0.576923,0.423077,0
Green_YC310_Pro_5B88_260927_050435.csv,1,51,25,24,33607.2,0.0944289,4.82294e+06,0.364588,32.33,0.01,0.388333,0.00166633,0.0661538,0.566273,-0.00230765,0.433727,0.415797,0.172468,0.264011,0.104032,0.200888,0.270763,0.332555,2026-09-27 05:05:06,0,6.2,0.3,0,0,52.7797,0.159746,0,0,0.692308,0.307692,0
Green_YC310_Pro_5B88_260927_050655.csv,1,52,26,15,27507.1,0.0700286,4.93158e+06,0.386316,32.33,0,0.388333,3.33333e-07,0.0659259,0.562344,-0.000227874,0.437656,0.41845,0.174339,0.265882,0.0838875,0.205141,0.272474,0.330012,2026-09-27 05:07:23,0,6.2,0.3,0,0,54.8523,0.185654,0,0,0.703704,0.296296,0
Green_YC310_Pro_5B88_260927_050914.csv,1,53,25,23,29400.5,0.0776022,4.89894e+06,0.379788,32.33,0,0.388333,3.33333e-07,0.068,0.598103,0.0020741,0.401897,0.426847,0.184664,0.274278,0.0697697,0.208123,0.278422,0.332979,2026-09-27 05:09:42,0,6.2,0.3,0,0,53.1915,0.164894,0,0,0.6,0.4,0
Green_YC310_Pro_5B88_260927_051132.csv,1,54,27,14,23461.4,0.0538457,5.16784e+06,0.433568,32.33,0,0.388333,3.33333e-07,0.0642857,0.534064,-0.00371429,0.465936,0.43259,0.194128,0.280022,0.0723812,0.207571,0.282781,0.337889,2026-09-27 05:12:00,0,6.2,0.3,0,0,57.8571,0.223214,0,0,0.785714,0.214286,0
Green_YC310_Pro_5B88_260927_051352.csv,1,55,24,22,33847.6,0.0953904,5.56392e+06,0.512784,32.33,0,0.388333,3.33333e-07,0.0664,0.570517,0.0021143,0.429483,0.429937,0.184725,0.277369,0.0856957,0.20476,0.28016,0.338081,2026-09-27 05:14:21,0,6.2,0.3,0,0,53.2151,0.165189,0,0,0.68,0.32,0
Green_YC310_Pro_5B88_260927_051611.csv,1,56,25,20,36962.7,0.107851,5.51043e+06,0.502087,32.33,0,0.388333,3.33333e-07,0.0684615,0.606061,0.00206154,0.393939,0.41478,0.17541,0.268055,0.0920108,0.203426,0.270548,0.329802,2026-09-27 05:16:38,0,6.2,0.3,0,0,54.8246,0.185307,0,0.0384615,0.5,0.461538,0
Green_YC310_Pro_5B88_260927_051829.csv,1,57,25,21,41862.7,0.127451,5.67097e+06,0.534194,32.33,0,0.388333,3.33333e-07,0.0669231,0.579536,-0.00153842,0.420464,0.410517,0.1775,0.270144,0.121826,0.19713,0.268413,0.333963,2026-09-27 05:18:58,0,6.2,0.3,0,0,53.267,0.165838,0,0,0.653846,0.346154,0
Green_YC310_Pro_5B88_260927_052047.csv,1,58,26,25,42544,0.130176,5.6223e+06,0.52446,32.32,-0.01,0.386667,-0.00166633,0.0676923,0.592798,0.000769208,0.407202,0.417149,0.181355,0.273999,0.124838,0.195969,0.272925,0.339636,2026-09-27 05:21:16,0,6.2,0.3,0,0,54.5836,0.182295,0,0,0.615385,0.384615,0
Green_YC310_Pro_5B88_260927_052310.csv,1,59,26,24,42128.9,0.128515,5.61931e+06,0.523862,32.31,-0.01,0.385,-0.001667,0.0661538,0.566273,-0.00153845,0.433727,0.412114,0.23129,0.323934,0.12785,0.194807,0.276466,0.344338,2026-09-27 05:23:38,0,6.2,0.3,0,0,55.6745,0.195931,0,0,0.692308,0.307692,0
Green_YC310_Pro_5B88_260927_052526.csv,1,60,26,24,41214.5,0.124858,5.63333e+06,0.526666,32.31,0,0.385,3.88578e-16,0.0696296,0.626201,0.00347583,0.373799,0.413603,0.230199,0.322844,0.108297,0.198936,0.277168,0.340912,2026-09-27 05:25:55,0,6.2,0.3,0,0,55.8339,0.197924,0,0,0.518519,0.481481,0
Green_YC310_Pro_5B88_260927_052752.csv,1,61,30,19,27879.8,0.0715191,5.89273e+06,0.578546,32.32,0.01,0.386667,0.00166667,0.063871,0.526913,-0.00575863,0.473087,0.420168,0.235112,0.327757,0.101275,0.200944,0.281104,0.34284,2026-09-27 05:28:20,0,6.2,0.3,0,0,63.7394,0.296743,0,0,0.806452,0.193548,0
Green_YC310_Pro_5B88_260927_053004.csv,1,62,26,7,29013.9,0.0760558,4.9101e+06,0.38202,32.32,0,0.386667,-3.33333e-07,0.0674074,0.587886,0.00353641,0.412114,0.413619,0.240026,0.33267,0.0942531,0.202427,0.27803,0.338282,2026-09-27 05:30:32,0,6.2,0.3,0,0,56.8928,0.21116,0,0,0.62963,0.37037,0
Green_YC310_Pro_5B88_260927_053224.csv,1,63,25,20,39246.8,0.116987,4.80128e+06,0.360256,32.33,0.01,0.388333,0.00166633,0.0707692,0.645849,0.00336183,0.354151,0.419446,0.224797,0.317442,0.0887564,0.204113,0.279121,0.337688,2026-09-27 05:32:53,0,6.2,0.3,0,0,54.6647,0.183309,0,0,0.461538,0.538462,0
Green_YC310_Pro_5B88_260927_053442.csv,1,64,27,13,23757.3,0.0550292,4.94986e+06,0.389972,32.34,0.01,0.39,0.001667,0.0628571,0.509433,-0.00791206,0.490567,0.440043,0.209569,0.302213,0.0793871,0.206617,0.288484,0.344547,2026-09-27 05:35:10,0,6.2,0.3,0,0,57.8985,0.223731,0,0,0.857143,0.142857,0
Green_YC310_Pro_5B88_260927_053700.csv,1,65,27,21,32625.8,0.0905031,4.73107e+06,0.346214,32.34,0,0.39,5.55112e-16,0.0642857,0.534064,0.00142861,0.465936,0.475409,0.21141,0.304054,0.0756291,0.207411,0.308512,0.363781,2026-09-27 05:37:29,0,6.2,0.3,0,0,58.8663,0.235829,0,0,0.785714,0.214286,0
Green_YC310_Pro_5B88_260927_053921.csv,1,66,25,21,32213.9,0.0888558,5.58682e+06,0.517364,32.35,0.01,0.391667,0.00166667,0.0646154,0.539748,0.000329685,0.460252,0.470544,0.21494,0.307584,0.0813551,0.206727,0.30588,0.361833,2026-09-27 05:39:51,0,6.2,0.3,0,0,55.1065,0.188831,0,0,0.769231,0.230769,0
Green_YC310_Pro_5B88_260927_054139.csv,1,67,28,7,28051.8,0.0722071,5.62838e+06,0.525676,32.35,0,0.391667,-3.33333e-07,0.0637037,0.524029,-0.000911696,0.475971,0.462462,0.221208,0.313853,0.0883234,0.205256,0.302111,0.359535,2026-09-27 05:42:08,0,6.2,0.3,0,0,59.7015,0.246269,0,0,0.814815,0.185185,0
Green_YC310_Pro_5B88_260927_054359.csv,1,68,26,17,37852,0.111408,5.45177e+06,0.490355,32.34,-0.01,0.39,-0.001667,0.0659259,0.562344,0.00222223,0.437656,0.454305,0.218973,0.311618,0.0938828,0.203556,0.297606,0.35673,2026-09-27 05:44:30,0,6.2,0.3,0,0,56.2771,0.203464,0,0,0.703704,0.296296,0
Green_YC310_Pro_5B88_260927_054617.csv,1,69,27,15,30127.1,0.0805082,5.84539e+06,0.569078,32.34,0,0.39,5.55112e-16,0.0642857,0.534064,-0.00164019,0.465936,0.451796,0.20887,0.309109,0.0942773,0.203473,0.294982,0.354189,2026-09-27 05:46:45,0,6.2,0.3,0,0,57.8158,0.222698,0,0,0.785714,0.214286,0
Green_YC310_Pro_5B88_260927_054836.csv,1,70,26,15,31098.1,0.0843922,5.83245e+06,0.56649,32.34,0,0.39,5.55112e-16,0.0659259,0.562344,0.00164023,0.437656,0.459493,0.228506,0.316806,0.0909158,0.204183,0.301662,0.360159,2026-09-27 05:49:05,0,6.2,0.3,0,0,54.9296,0.18662,0,0,0.703704,0.296296,0
Green_YC310_Pro_5B88_260927_055055.csv,1,71,31,28,36961.6,0.107847,5.64234e+06,0.528468,32.34,0,0.39,5.55112e-16,0.0625,0.503276,-0.0034259,0.496724,0.471924,0.262649,0.329237,0.106125,0.200971,0.312744,0.374453,2026-09-27 05:51:24,0,6.2,0.3,0,0,65.4469,0.318086,0,0,0.875,0.125,0
Green_YC310_Pro_5B88_260927_055314.csv,1,72,28,27,41533.7,0.126135,5.61119e+06,0.522239,32.34,0,0.39,5.55112e-16,0.0648276,0.543407,0.00232759,0.456593,0.469599,0.283241,0.34983,0.106427,0.200907,0.313927,0.375699,2026-09-27 05:53:42,0,6.2,0.3,0,0,59.9572,0.249465,0,0,0.758621,0.241379,0
Green_YC310_Pro_5B88_260927_055533.csv,1,73,28,16,31755.4,0.0870215,5.75351e+06,0.550703,32.34,0,0.39,5.55112e-16,0.0641379,0.531516,-0.000689669,0.468484,0.446611,0.266187,0.332776,0.101689,0.201908,0.298996,0.359768,2026-09-27 05:56:01,0,6.2,0.3,0,0,59.8717,0.248396,0,0,0.793103,0.206897,0
Green_YC310_Pro_5B88_260927_055752.csv,1,74,29,26,36644.7,0.106579,5.82698e+06,0.565396,32.35,0.01,0.391667,0.00166667,0.0646667,0.540632,0.000528767,0.459368,0.414756,0.242217,0.308805,0.0932704,0.204211,0.277931,0.336399,2026-09-27 05:58:22,0,6.2,0.3,0,0,61.354,0.266925,0,0,0.766667,0.233333,0
Green_YC310_Pro_5B88_260927_060011.csv,1,75,26,24,33797.2,0.0951889,4.55395e+06,0.31079,32.38,0.03,0.396667,0.00499967,0.0703704,0.638972,0.00570367,0.361028,0.434829,0.238551,0.305139,0.0862106,0.207278,0.287729,0.343131,2026-09-27 06:00:40,0,6.2,0.3,0,0,54.9296,0.18662,0,0,0.481481,0.518519,0
Green_YC310_Pro_5B88_260927_060230.csv,1,76,30,19,26460.6,0.0658423,5.48699e+06,0.497399,32.4,0.02,0.4,0.003333,0.0606452,0.471296,-0.00972524,0.528704,0.461403,0.247739,0.314327,0.0827915,0.209051,0.303053,0.356681,2026-09-27 06:02:59,0,6.2,0.3,0,0,65.123,0.314038,0,0.0322581,0.903226,0.0645161,0
Green_YC310_Pro_5B88_260927_060450.csv,1,77,29,21,28630.3,0.0745214,5.47194e+06,0.494387,32.42,0.02,0.403333,0.00333333,0.0634483,0.519625,0.00280308,0.480375,0.494478,0.242559,0.309148,0.0793724,0.210824,0.320283,0.372138,2026-09-27 06:05:19,0,6.2,0.3,0,0,61.1814,0.264767,0,0,0.827586,0.172414,0
Green_YC310_Pro_5B88_260927_060708.csv,1,78,25,22,33225.6,0.0929025,5.48333e+06,0.496666,32.43,0.01,0.405,0.001667,0.0646154,0.539748,0.00116708,0.460252,0.508038,0.285736,0.322708,0.0692135,0.213495,0.332754,0.381939,2026-09-27 06:07:37,0,6.2,0.3,0,0,53.6865,0.171081,0,0,0.769231,0.230769,0
Green_YC310_Pro_5B88_260927_060926.csv,1,79,35,21,18841.4,0.0353656,5.37372e+06,0.474745,32.43,0,0.405,-5.55112e-17,0.0582857,0.430616,-0.00632969,0.569384,0.522397,0.344363,0.337066,0.0694632,0.213442,0.347871,0.397108,2026-09-27 06:09:55,0,6.2,0.3,0,0,75.4853,0.443566,0,0.0857143,0.914286,0,0
Green_YC310_Pro_5B88_260927_061150.csv,1,80,31,19,38554.7,0.114219,5.43807e+06,0.487613,32.43,0,0.405,-5.55112e-17,0.0628571,0.509433,0.00457144,0.490567,0.543276,0.374335,0.357946,0.0745747,0.212363,0.36318,0.413497,2026-09-27 06:12:23,0,5.6,0.257143,0,0,65.5391,0.319239,0.0357143,0.0357143,0.678571,0.25,0
Green_YC310_Pro_5B88_260927_061405.csv,1,81,31,2,25522.7,0.0620909,5.08475e+06,0.41695,32.41,-0.02,0.401667,-0.00333333,0.0552,0.377414,-0.0076571,0.622586,0.537857,0.360201,0.352527,0.0741394,0.211404,0.359107,0.410383,2026-09-27 06:14:36,0,5.7,0.264286,0,0,65.7709,0.322136,0,0.24,0.76,0,0
Green_YC310_Pro_5B88_260927_061624.csv,1,82,31,6,21527.1,0.0461084,5.14076e+06,0.428152,32.32,-0.09,0.386667,-0.0150003,0.0672,0.58431,0.012,0.41569,0.500419,0.37593,0.368256,0.0424434,0.213368,0.343039,0.392352,2026-09-27 06:16:53,0,5.7,0.264286,0,0,72.093,0.401163,0,0.08,0.56,0.28,0.08
Green_YC310_Pro_5B88_260927_061845.csv,1,83,32,10,14782.7,0.0191309,4.94379e+06,0.388758,32.22,-0.1,0.37,-0.016667,0.0634483,0.519625,-0.00375172,0.480375,0.462981,0.386844,0.37917,0.0393281,0.20877,0.326725,0.380634,2026-09-27 06:19:20,0,5.7,0.264286,0,0,69.3141,0.366426,0,0.137931,0.586207,0.241379,0.0344828
Green_YC310_Pro_5B88_260927_062103.csv,1,84,35,17,24102.5,0.0564101,5.43315e+06,0.48663,32.17,-0.05,0.361667,-0.00833333,0.0617143,0.489729,-0.00173401,0.510271,0.460148,0.379331,0.376338,0.0461205,0.204709,0.325898,0.383869,2026-09-27 06:21:38,0,5.7,0.264286,0,0,73.0689,0.413361,0,0.0857143,0.771429,0.114286,0.0285714
Green_YC310_Pro_5B88_260927_062323.csv,1,85,30,20,23132.8,0.052531,5.42662e+06,0.485325,32.11,-0.06,0.351667,-0.0100003,0.0653333,0.552126,0.00361903,0.447874,0.457315,0.374227,0.373505,0.0543467,0.199819,0.325696,0.388557,2026-09-27 06:23:57,0,5.5,0.25,0,0,65.9341,0.324176,0,0.0666667,0.6,0.333333,0
Green_YC310_Pro_5B88_260927_062541.csv,1,86,33,14,23978.7,0.0559149,5.52263e+06,0.504526,32.08,-0.03,0.346667,-0.00500033,0.0678571,0.59564,0.00252384,0.40436,0.474134,0.385145,0.384423,0.0410902,0.201041,0.337432,0.39907,2026-09-27 06:26:13,0,5.2,0.228571,0,0,71.0696,0.38837,0,0.0714286,0.5,0.392857,0.0357143
Green_YC310_Pro_5B88_260927_062800.csv,1,87,35,15,9650.14,0,4.87495e+06,0.374989,32.05,-0.03,0.341667,-0.00500033,0.0587879,0.439274,-0.00906922,0.560726,0.502505,0.425325,0.412794,0.0293805,0.201938,0.359169,0.419911,2026-09-27 06:28:33,0,5.1,0.221429,0,0,75.431,0.442887,0,0.181818,0.69697,0.121212,0
Green_YC310_Pro_5B88_260927_063021.csv,1,88,36,12,21382.6,0.0455306,5.48805e+06,0.49761,32,-0.05,0.333333,-0.00833367,0.0632258,0.51579,0.00443791,0.48421,0.509406,0.414204,0.401673,0.0322266,0.198709,0.363358,0.427329,2026-09-27 06:30:55,0,5.1,0.221429,0,0,75.5773,0.444716,0,0.0645161,0.709677,0.225806,0
Green_YC310_Pro_5B88_260927_063242.csv,1,89,32,18,22787.3,0.0511491,5.757e+06,0.551401,32.02,0.02,0.336667,0.00333367,0.0618182,0.49152,-0.00140762,0.50848,0.470225,0.403083,0.390553,0.0512461,0.195744,0.339408,0.406344,2026-09-27 06:33:16,0,5,0.214286,0,0,69.9199,0.373999,0,0.0606061,0.787879,0.151515,0
Green_YC310_Pro_5B88_260927_063456.csv,1,90,32,15,24264.6,0.0570586,5.62603e+06,0.525206,31.98,-0.04,0.33,-0.006667,0.0692857,0.620271,0.00746751,0.379729,0.427995,0.395843,0.383313,0.0475918,0.194414,0.316219,0.384485,2026-09-27 06:35:28,0,4.9,0.207143,0,0,68.916,0.36145,0,0.0357143,0.5,0.428571,0.0357143
Green_YC310_Pro_5B88_260927_063719.csv,1,91,35,9,18617.7,0.0344708,5.97772e+06,0.595543,32.03,0.05,0.338333,0.00833333,0.0655556,0.555958,-0.00373014,0.444042,0.416714,0.386844,0.374313,0.0484149,0.196867,0.307149,0.372961,2026-09-27 06:37:51,0,5,0.214286,0,0,73.8397,0.422996,0,0.0277778,0.666667,0.305556,0
Green_YC310_Pro_5B88_260927_063934.csv,1,92,33,20,26914.8,0.0676593,5.00607e+06,0.401215,32.05,0.02,0.341667,0.00333367,0.0660606,0.564666,0.000505006,0.435334,0.426372,0.376084,0.363554,0.0542063,0.196695,0.310592,0.376576,2026-09-27 06:40:06,0,5,0.214286,0,0,68.4174,0.355218,0,0.0606061,0.606061,0.30303,0.030303
Green_YC310_Pro_5B88_260927_064157.csv,1,93,31,30,24448.8,0.0577951,4.95038e+06,0.390077,32.12,0.07,0.353333,0.0116663,0.068125,0.600259,0.0020644,0.399741,0.40904,0.37156,0.359029,0.0604888,0.199047,0.298006,0.361639,2026-09-27 06:42:30,0,5.1,0.221429,0,0,66.3338,0.329172,0,0,0.59375,0.40625,0
Green_YC310_Pro_5B88_260927_064415.csv,1,94,34,7,23329.6,0.0533183,5.00637e+06,0.401275,32.2,0.08,0.366667,0.0133337,0.0685714,0.607956,0.000446429,0.392044,0.411051,0.367035,0.354505,0.0647124,0.202359,0.29592,0.35624,2026-09-27 06:44:46,0,5.4,0.242857,0,0,70.5882,0.382352,0,0.0357143,0.571429,0.321429,0.0714286
Green_YC310_Pro_5B88_260927_064631.csv,1,95,34,20,30082.6,0.0803302,4.99401e+06,0.398802,32.33,0.13,0.388333,0.0216663,0.06625,0.567931,-0.0023214,0.432069,0.417393,0.360085,0.347555,0.0726849,0.207507,0.2943,0.349472,2026-09-27 06:47:04,0,5.9,0.278571,0,0,72.3918,0.404898,0,0,0.6875,0.3125,0
Green_YC310_Pro_5B88_260927_064850.csv,1,96,31,20,29190.3,0.0767611,5.04449e+06,0.408899,32.39,0.06,0.398333,0.0100003,0.0673333,0.586609,0.00108333,0.413391,0.420934,0.353135,0.340605,0.0796481,0.20919,0.293444,0.346934,2026-09-27 06:49:23,0,6.2,0.3,0,0,66.8584,0.33573,0,0,0.633333,0.366667,0
Green_YC310_Pro_5B88_260927_065110.csv,1,97,30,24,30234.7,0.0809387,4.93872e+06,0.387745,32.43,0.04,0.405,0.006667,0.0666667,0.575115,-0.000666633,0.424885,0.395329,0.30735,0.314999,0.0818531,0.210826,0.272245,0.324099,2026-09-27 06:51:42,0,6.6,0.328571,0,0,65.5022,0.318778,0,0,0.666667,0.333333,0
Green_YC310_Pro_5B88_260927_065334.csv,1,98,28,23,31964.9,0.0878594,4.93604e+06,0.387207,32.5,0.07,0.416667,0.0116667,0.0728571,0.681847,0.00619044,0.318153,0.37169,0.290434,0.298083,0.0840953,0.214031,0.254633,0.303282,2026-09-27 06:54:06,0,7,0.357143,0,0,61.4035,0.267544,0,0,0.392857,0.571429,0.0357143
Green_YC310_Pro_5B88_260927_065547.csv,1,99,29,21,32499.4,0.0899978,5.07787e+06,0.415574,32.5,0,0.416667,-3.33333e-07,0.0717241,0.662313,-0.00113296,0.337687,0.372031,0.273518,0.281167,0.0897623,0.212834,0.252782,0.302628,2026-09-27 06:56:20,0,7.5,0.392857,0,0,61.8337,0.272921,0,0,0.448276,0.517241,0.0344828
Green_YC310_Pro_5B88_260927_065806.csv,1,100,28,20,32857.4,0.0914296,4.92131e+06,0.384261,32.51,0.01,0.418333,0.00166633,0.0646154,0.539748,-0.00710872,0.460252,0.438507,0.303353,0.311001,0.0895873,0.213397,0.293276,0.342559,2026-09-27 06:58:38,0,7.6,0.4,0,0,62.4071,0.280089,0,0,0.769231,0.230769,0
Green_YC310_Pro_5B88_260927_070027.csv,1,101,31,19,31892.5,0.08757,4.89777e+06,0.379555,32.57,0.06,0.428333,0.0100003,0.0612903,0.482419,-0.00332508,0.517581,0.435137,0.311871,0.31952,0.0926859,0.215895,0.290417,0.337201,2026-09-27 07:01:00,0,7.7,0.407143,0,0,65.309,0.316362,0,0.0322581,0.870968,0.0967742,0
Green_YC310_Pro_5B88_260927_070248.csv,1,102,32,12,36043.4,0.104174,4.9087e+06,0.38174,32.65,0.08,0.441667,0.0133337,0.0678571,0.59564,0.00656684,0.40436,0.431767,0.310479,0.318127,0.0930715,0.220018,0.285695,0.328357,2026-09-27 07:03:21,0,7.9,0.421429,0,0,67.1329,0.339161,0,0,0.642857,0.321429,0.0357143
Green_YC310_Pro_5B88_260927_070503.csv,1,103,29,13,29091.9,0.0763678,4.87372e+06,0.374744,32.68,0.03,0.446667,0.00499967,0.0696552,0.626641,0.00179807,0.373359,0.381711,0.309086,0.316735,0.0876675,0.222735,0.256496,0.29644,2026-09-27 07:05:35,0,7.7,0.407143,0,0,62.8159,0.285199,0,0,0.517241,0.482759,0
Green_YC310_Pro_5B88_260927_070724.csv,1,104,29,21,33440.1,0.0937605,4.8526e+06,0.370521,32.67,-0.01,0.445,-0.001667,0.07,0.632586,0.0003448,0.367414,0.412235,0.323169,0.330818,0.0855502,0.222657,0.275622,0.315645,2026-09-27 07:07:56,0,7.5,0.392857,0,0,62.3209,0.279011,0,0,0.5,0.5,0
Green_YC310_Pro_5B88_260927_070941.csv,1,105,33,14,29578,0.078312,4.86355e+06,0.372711,32.67,0,0.445,2.77556e-16,0.0630303,0.512419,-0.0069697,0.487581,0.433244,0.330313,0.337962,0.0892806,0.221869,0.28825,0.32906,2026-09-27 07:10:19,0,7.3,0.378571,0,0,70.5128,0.38141,0,0.030303,0.787879,0.181818,0
Green_YC310_Pro_5B88_260927_071204.csv,1,106,30,19,36684.6,0.106738,4.88896e+06,0.377791,32.77,0.1,0.461667,0.0166667,0.0686667,0.609598,0.00563637,0.390402,0.436205,0.330518,0.338167,0.091369,0.226683,0.286599,0.322596,2026-09-27 07:12:41,0,7.4,0.385714,0,0,63.3357,0.291696,0,0.0333333,0.5,0.466667,0
Green_YC310_Pro_5B88_260927_071419.csv,1,107,30,9,34721.5,0.0988861,4.84485e+06,0.36897,32.84,0.07,0.473333,0.0116663,0.0659259,0.562344,-0.00274077,0.437656,0.430632,0.315999,0.332594,0.089057,0.23085,0.279393,0.311222,2026-09-27 07:14:51,0,6.9,0.35,0,0,62.3701,0.279626,0,0,0.740741,0.222222,0.037037
Green_YC310_Pro_5B88_260927_071640.csv,1,108,29,13,27844,0.0713761,4.90311e+06,0.380621,32.82,-0.02,0.47,-0.003333,0.064,0.529138,-0.0019259,0.470862,0.411475,0.301481,0.318075,0.0936484,0.228829,0.267579,0.301429,2026-09-27 07:17:12,0,6.9,0.35,0,0,63.3649,0.292061,0,0,0.8,0.2,0
Green_YC310_Pro_5B88_260927_071900.csv,1,109,32,13,40128.1,0.120512,4.93627e+06,0.387255,32.84,0.02,0.473333,0.00333333,0.072,0.667069,0.008,0.332931,0.42175,0.328862,0.32835,0.0951286,0.229568,0.275971,0.309083,2026-09-27 07:19:31,0,7.2,0.371429,0,0,66.6204,0.332755,0,0,0.56,0.28,0.16
Green_YC310_Pro_5B88_260927_072119.csv,1,110,33,26,27031.7,0.0681269,4.93762e+06,0.387523,32.88,0.04,0.48,0.006667,0.0593939,0.449723,-0.0126061,0.550277,0.467107,0.345036,0.344524,0.0934978,0.232014,0.301989,0.332655,2026-09-27 07:21:52,0,6.5,0.321429,0,0,68.9415,0.361769,0,0.0606061,0.909091,0.030303,0
Green_YC310_Pro_5B88_260927_072338.csv,1,111,32,21,26620.9,0.0664836,4.86439e+06,0.372878,32.87,-0.01,0.478333,-0.00166667,0.062,0.494655,0.0026061,0.505345,0.518112,0.357622,0.357111,0.086476,0.232971,0.332405,0.362113,2026-09-27 07:24:10,0,6.5,0.321429,0,0,67.5581,0.344476,0,0.1,0.7,0.2,0
Green_YC310_Pro_5B88_260927_072554.csv,1,112,33,18,34861.7,0.0994467,4.7622e+06,0.352439,32.84,-0.03,0.473333,-0.00499967,0.063125,0.514052,0.001125,0.485948,0.51801,0.366622,0.366111,0.085272,0.231649,0.334434,0.365464,2026-09-27 07:26:27,0,6.5,0.321429,0,0,69.7674,0.372092,0,0.09375,0.65625,0.25,0
Green_YC310_Pro_5B88_260927_072814.csv,1,113,33,25,32925,0.0917,4.79658e+06,0.359315,32.8,-0.04,0.466667,-0.00666633,0.0594118,0.45003,-0.00371324,0.54997,0.526204,0.383395,0.374305,0.0898856,0.228573,0.34238,0.376487,2026-09-27 07:28:46,0,6.5,0.321429,0,0,70.6638,0.383297,0,0.0882353,0.852941,0.0588235,0
Green_YC310_Pro_5B88_260927_073033.csv,1,114,33,17,30081.1,0.0803245,4.89221e+06,0.378441,32.79,-0.01,0.465,-0.001667,0.0612121,0.481071,0.00180032,0.518929,0.539943,0.385075,0.375986,0.0835961,0.229376,0.35061,0.383914,2026-09-27 07:31:06,0,6.5,0.321429,0,0,71.5835,0.394794,0,0.0909091,0.757576,0.151515,0
Green_YC310_Pro_5B88_260927_073252.csv,1,115,33,18,30144.5,0.0805781,4.77312e+06,0.354625,32.77,-0.02,0.461667,-0.00333333,0.0580645,0.426802,-0.00314758,0.573198,0.55093,0.392588,0.383498,0.0779951,0.229507,0.358336,0.391509,2026-09-27 07:33:25,0,6.5,0.321429,0,0,70.163,0.377037,0,0.129032,0.83871,0.0322581,0
Green_YC310_Pro_5B88_260927_073512.csv,1,116,35,20,27624.9,0.0704995,4.77243e+06,0.354487,32.73,-0.04,0.455,-0.006667,0.0575,0.417069,-0.0005645,0.582931,0.546402,0.405933,0.396843,0.0760504,0.227816,0.358744,0.393608,2026-09-27 07:35:44,0,6.5,0.321429,0,0,73.9437,0.424296,0,0.125,0.875,0,0
Green_YC310_Pro_5B88_260927_073730.csv,1,117,35,17,30656.1,0.0826246,4.91969e+06,0.383938,32.74,0.01,0.456667,0.00166667,0.062,0.494655,0.0045,0.505345,0.525525,0.398488,0.389398,0.0738176,0.228813,0.345821,0.379688,2026-09-27 07:38:07,0,5.9,0.278571,0,0,74.7863,0.434829,0,0.1,0.733333,0.133333,0.0333333
Green_YC310_Pro_5B88_260927_073948.csv,1,118,32,19,24880.4,0.0595215,4.67198e+06,0.334396,32.75,0.01,0.458333,0.00166633,0.0618182,0.49152,-0.000181818,0.50848,0.502856,0.377404,0.368314,0.071943,0.229734,0.330249,0.363194,2026-09-27 07:40:24,0,5.9,0.278571,0,0,68.3761,0.354701,0,0.0606061,0.787879,0.151515,0
Green_YC310_Pro_5B88_260927_074208.csv,1,119,33,27,29081.1,0.0763242,4.72646e+06,0.345292,32.75,0,0.458333,3.33333e-07,0.0629412,0.510882,0.00112298,0.489118,0.504023,0.36096,0.35187,0.073683,0.229367,0.328918,0.362231,2026-09-27 07:42:40,0,5.9,0.278571,0,0,69.2308,0.365385,0,0.0294118,0.794118,0.176471,0
Green_YC310_Pro_5B88_260927_074426.csv,1,120,32,20,31300.8,0.0852032,4.86346e+06,0.372691,32.76,0.01,0.46,0.001667,0.0606061,0.470622,-0.00233514,0.529378,0.505761,0.371847,0.353608,0.0824083,0.22805,0.330872,0.365502,2026-09-27 07:44:59,0,5.9,0.278571,0,0,68.6695,0.358369,0,0.0606061,0.848485,0.0909091,0
Green_YC310_Pro_5B88_260927_074650.csv,1,121,33,20,31424.4,0.0856975,4.86169e+06,0.372338,32.81,0.05,0.468333,0.00833333,0.06375,0.524828,0.0031439,0.475172,0.50522,0.385091,0.366852,0.0780098,0.231606,0.330501,0.361574,2026-09-27 07:47:23,0,5.9,0.278571,0,0,72.4214,0.405268,0,0.0625,0.6875,0.25,0
Green_YC310_Pro_5B88_260927_074904.csv,1,122,32,16,30985.8,0.0839434,4.81595e+06,0.363191,32.83,0.02,0.471667,0.00333367,0.0618182,0.49152,-0.00193182,0.50848,0.511111,0.42502,0.372742,0.0736113,0.233586,0.337951,0.367045,2026-09-27 07:49:37,0,5.9,0.278571,0,0,69.7168,0.37146,0,0.0909091,0.727273,0.181818,0
Green_YC310_Pro_5B88_260927_075126.csv,1,123,40,17,25381.3,0.061525,5.1547e+06,0.43094,32.87,0.04,0.478333,0.00666633,0.0594286,0.45032,-0.00238963,0.54968,0.549904,0.44549,0.393211,0.0896286,0.232306,0.360813,0.391187,2026-09-27 07:52:00,0,6.2,0.3,0,0,84.1515,0.551894,0.0285714,0.2,0.542857,0.228571,0
Green_YC310_Pro_5B88_260927_075401.csv,1,124,33,5,33207.2,0.0928286,5.11878e+06,0.423756,32.82,-0.05,0.47,-0.008333,0.057,0.408448,-0.0024286,0.591552,0.525945,0.413115,0.369252,0.105646,0.226296,0.345155,0.381539,2026-09-27 07:54:35,0,6.2,0.3,0,0,71.3256,0.39157,0,0.3,0.55,0.15,0
Green_YC310_Pro_5B88_260927_075605.csv,1,125,14,2,47441.8,0.149767,4.9174e+06,0.38348,32.75,-0.07,0.458333,-0.0116667,0.066,0.563621,0.009,0.436379,0.530735,0.381117,0.337254,0.120442,0.219493,0.346309,0.389496,2026-09-27 07:56:37,0,6.2,0.3,0,0,61.9469,0.274336,0,0.1,0.6,0.2,0.1
Green_YC310_Pro_5B88_260927_075833.csv,1,126,33,4,44363.4,0.137454,5.06025e+06,0.412049,32.74,-0.01,0.456667,-0.00166633,0.0558333,0.388333,-0.0101667,0.611667,0.564274,0.349118,0.305256,0.135238,0.215843,0.361562,0.408399,2026-09-27 07:59:05,0,6.2,0.3,0,0,70.2626,0.378283,0.0416667,0.25,0.583333,0.125,0
Green_YC310_Pro_5B88_260927_080040.csv,1,127,34,4,39623.5,0.118494,5.78542e+06,0.557083,32.69,-0.05,0.448333,-0.00833367,0.053913,0.355225,-0.00192026,0.644775,0.640018,0.424574,0.380711,0.100166,0.220622,0.414752,0.45681,2026-09-27 08:01:15,0,5.9,0.278571,0,0,71.5789,0.394736,0.0434783,0.434783,0.391304,0.0434783,0.0869565
Green_YC310_Pro_5B88_260927_080258.csv,1,128,38,30,21137.6,0.0445503,5.04888e+06,0.409775,32.76,0.07,0.46,0.011667,0.0528205,0.336388,-0.00109249,0.663612,0.64242,0.4416,0.383114,0.0804734,0.228459,0.415819,0.45004,2026-09-27 08:03:32,0,5.7,0.264286,0,0,80.0562,0.500703,0,0.358974,0.641026,0,0
Green_YC310_Pro_5B88_260927_080519.csv,1,129,36,29,23900.9,0.0556035,5.02994e+06,0.405988,32.77,0.01,0.461667,0.00166667,0.052973,0.339017,0.000152473,0.660983,0.644823,0.458626,0.385516,0.0607807,0.233142,0.418886,0.448424,2026-09-27 08:05:52,0,5.4,0.242857,0,0,75.5773,0.444716,0,0.351351,0.648649,0,0
Green_YC310_Pro_5B88_260927_080736.csv,1,130,35,26,30547.1,0.0821882,5.12823e+06,0.425647,32.77,0,0.461667,-3.33333e-07,0.055,0.373966,0.002027,0.626034,0.638683,0.441796,0.379376,0.0799956,0.229085,0.413417,0.447011,2026-09-27 08:08:11,0,5.4,0.242857,0,0,73.324,0.41655,0,0.25,0.75,0,0
Green_YC310_Pro_5B88_260927_080955.csv,1,131,34,25,35548.7,0.102195,5.13575e+06,0.427149,32.83,0.06,0.471667,0.00999967,0.0538889,0.354808,-0.00111111,0.645192,0.632796,0.424966,0.373489,0.0792683,0.232391,0.406089,0.436377,2026-09-27 08:10:28,0,5.5,0.25,0,0,74.0741,0.425926,0,0.361111,0.583333,0.0555556,0
Green_YC310_Pro_5B88_260927_081217.csv,1,132,34,19,23903.6,0.0556142,5.36362e+06,0.472723,32.89,0.06,0.481667,0.00999967,0.0544444,0.364387,0.000555544,0.635613,0.627162,0.407804,0.367855,0.0791859,0.235562,0.398862,0.42598,2026-09-27 08:12:55,0,5.8,0.271429,0,0,74.6706,0.433382,0.0277778,0.277778,0.638889,0.0555556,0
Green_YC310_Pro_5B88_260927_081433.csv,1,133,33,27,30196.7,0.0807868,5.06482e+06,0.412964,32.93,0.04,0.488333,0.00666633,0.0564706,0.39932,0.00202619,0.60068,0.599006,0.390642,0.350693,0.0797486,0.237545,0.379691,0.404825,2026-09-27 08:15:06,0,5.9,0.278571,0,0,69.6692,0.370865,0,0.205882,0.764706,0.0294118,0
Green_YC310_Pro_5B88_260927_081655.csv,1,134,32,20,35970.6,0.103883,5.09877e+06,0.419753,32.97,0.04,0.495,0.006667,0.0587879,0.439274,0.00231728,0.560726,0.58448,0.37805,0.338101,0.0931039,0.236827,0.368703,0.394556,2026-09-27 08:17:28,0,6.1,0.292857,0,0,69.4143,0.367679,0,0.181818,0.69697,0.121212,0
Green_YC310_Pro_5B88_260927_081911.csv,1,135,31,25,33920,0.09568,5.19153e+06,0.438307,33.05,0.08,0.508333,0.0133333,0.056875,0.406293,-0.0019129,0.593707,0.571992,0.346312,0.325613,0.102261,0.239097,0.355213,0.378795,2026-09-27 08:19:44,0,6.3,0.307143,0,0,67.8832,0.34854,0,0.15625,0.84375,0,0
Green_YC310_Pro_5B88_260927_082132.csv,1,136,31,21,37965.9,0.111863,5.23169e+06,0.446339,33.11,0.06,0.518333,0.0100003,0.06,0.460172,0.003125,0.539828,0.573113,0.348083,0.326734,0.107221,0.241203,0.354054,0.375531,2026-09-27 08:22:05,0,6.4,0.314286,0,0,65.8174,0.322718,0,0,1,0,0
Green_YC310_Pro_5B88_260927_082349.csv,1,137,32,19,39690.5,0.118762,5.09778e+06,0.419556,33.16,0.05,0.526667,0.00833367,0.057931,0.424501,-0.00206897,0.575499,0.585805,0.349854,0.328505,0.0989343,0.24558,0.359709,0.376808,2026-09-27 08:24:25,0,6.4,0.314286,0,0,67.1798,0.339747,0,0.137931,0.827586,0.0344828,0
Green_YC310_Pro_5B88_260927_082609.csv,1,138,33,14,27705,0.0708198,5.29586e+06,0.459172,33.19,0.03,0.531667,0.00499967,0.0546667,0.368218,-0.00326433,0.631782,0.579647,0.376606,0.355258,0.0992572,0.247088,0.358489,0.374081,2026-09-27 08:26:43,0,6.6,0.328571,0,0,70.9677,0.387096,0,0.266667,0.733333,0,0
Green_YC310_Pro_5B88_260927_082828.csv,1,139,34,27,32704.5,0.090818,5.04008e+06,0.408015,33.23,0.04,0.538333,0.00666633,0.0582353,0.429746,0.00356859,0.570254,0.573489,0.364147,0.3491,0.10819,0.247304,0.352204,0.36758,2026-09-27 08:29:01,0,6.7,0.335714,0,0,72.238,0.402975,0,0.117647,0.852941,0.0294118,0
Green_YC310_Pro_5B88_260927_083047.csv,1,140,30,17,46390.1,0.14556,5.09479e+06,0.418958,33.22,-0.01,0.536667,-0.00166633,0.0614286,0.484803,0.00319327,0.515197,0.58252,0.358657,0.343609,0.126474,0.242917,0.356932,0.376694,2026-09-27 08:31:20,0,7.1,0.364286,0,0,65.0289,0.312861,0,0.0357143,0.857143,0.107143,0
Green_YC310_Pro_5B88_260927_083306.csv,1,141,33,15,41417.9,0.125672,5.28256e+06,0.456512,33.25,0.03,0.541667,0.00499967,0.0592857,0.447857,-0.00214289,0.552143,0.591552,0.380494,0.35264,0.135916,0.2425,0.363625,0.383804,2026-09-27 08:33:40,0,7,0.357143,0,0,72.4744,0.40593,0.0357143,0.142857,0.678571,0.107143,0.0357143
Green_YC310_Pro_5B88_260927_083525.csv,1,142,34,29,46689.6,0.146758,5.31527e+06,0.463053,33.33,0.08,0.555,0.013333,0.0525714,0.332094,-0.00671427,0.667906,0.593194,0.400216,0.354282,0.136558,0.246568,0.364258,0.380369,2026-09-27 08:36:01,0,6.9,0.35,0,0,71.7804,0.397255,0,0.371429,0.628571,0,0
Green_YC310_Pro_5B88_260927_083745.csv,1,143,34,20,41761,0.127044,5.30531e+06,0.461061,33.41,0.08,0.568333,0.0133333,0.0611429,0.479877,0.00857146,0.520123,0.564776,0.384578,0.338645,0.139773,0.250093,0.34379,0.356376,2026-09-27 08:38:22,0,6.8,0.342857,0,0,72.0339,0.400424,0.0285714,0.0571429,0.742857,0.171429,0
Green_YC310_Pro_5B88_260927_084003.csv,1,144,32,21,46927.1,0.147709,5.27428e+06,0.454856,33.43,0.02,0.571667,0.00333367,0.0593548,0.449049,-0.00178806,0.550951,0.534077,0.356056,0.310123,0.145518,0.249931,0.32249,0.335238,2026-09-27 08:40:40,0,6.8,0.342857,0,0,69.7674,0.372092,0,0.0645161,0.903226,0.0322581,0
Green_YC310_Pro_5B88_260927_084221.csv,1,145,30,23,50997.9,0.163992,5.25558e+06,0.451117,33.49,0.06,0.581667,0.00999967,0.0614815,0.485715,0.00212668,0.514285,0.532455,0.377803,0.33187,0.148103,0.252538,0.322206,0.332347,2026-09-27 08:42:56,0,6.8,0.342857,0,0,64.9351,0.311689,0,0,0.925926,0.0740741,0
Green_YC310_Pro_5B88_260927_084442.csv,1,146,36,17,48788.2,0.155153,5.31337e+06,0.462674,33.51,0.02,0.585,0.003333,0.0605556,0.469751,-0.000925944,0.530249,0.532127,0.405481,0.359548,0.150689,0.253043,0.324696,0.334333,2026-09-27 08:45:16,0,6.6,0.328571,0,0,77.2532,0.465665,0.0277778,0.0833333,0.722222,0.166667,0
Green_YC310_Pro_5B88_260927_084659.csv,1,147,33,26,44346.4,0.137386,5.28783e+06,0.457567,33.59,0.08,0.598333,0.0133333,0.0594118,0.45003,-0.00114384,0.54997,0.54997,0.378906,0.332973,0.137386,0.260056,0.328814,0.331437,2026-09-27 08:47:36,0,6.4,0.314286,0,0,70.3125,0.378906,0,0.0882353,0.852941,0.0588235,0
