Sheet Name,Segment,Index,total_beat_count,Sel_Min,diff,diff_n,mean,mean_n,temp,temp_raw_diff,temp_n,temp_diff,rise_low,rise_low_n,rise_low_diff,rise_low_n_inv,rise_low_n_inv_center,HR_n_center,HR_n_center_lim,diff_n_center,diff_anker,rl_inv_corr,inv_corr,datetime,time_gap_seconds,CGM,CGM_n,SMBG,SMBG_n,HR,HR_n,r20,r40,r60,r80,r100
Green_YC310_Pro_5B88_260924_201528.csv,2,1,45,24,16043.6,0.0241746,5.28019e+06,0.456037,34.08,0,0.68,0,0.0551111,0.375881,0,0.624119,0.624119,0.680896,0.680896,0.0241746,0.309712,0.333854,0.371429,2026-09-24 20:15:56,0,5.4,0.242857,0,0,94.4717,0.680896,0,0.244444,0.755556,0,0
Green_YC310_Pro_5B88_260924_201811.csv,2,2,34,2,38279.1,0.113116,4.9066e+06,0.38132,34,-0.08,0.666667,-0.0133333,0.0607143,0.472488,0.00560319,0.527512,0.5609,0.510728,0.617677,0.0824406,0.293204,0.334287,0.388369,2026-09-24 20:18:36,0,5.4,0.242857,0,0,72.1358,0.401698,0,0.107143,0.785714,0.0714286,0.0357143
Green_YC310_Pro_5B88_260924_202056.csv,2,3,38,14,29839,0.0793559,4.86155e+06,0.37231,33.91,-0.09,0.651667,-0.0150003,0.0585714,0.435542,-0.00214287,0.564458,0.549064,0.449591,0.605841,0.0985638,0.28507,0.334775,0.39699,2026-09-24 20:21:20,0,5.4,0.242857,0,0,79.6089,0.495111,0,0.25,0.607143,0.107143,0.0357143
Green_YC310_Pro_5B88_260924_202339.csv,2,4,37,12,37530.2,0.110121,5.01267e+06,0.402534,33.9,-0.01,0.65,-0.001667,0.06,0.460172,0.0014286,0.539828,0.574721,0.479805,0.631498,0.103219,0.283561,0.355757,0.419482,2026-09-24 20:24:11,0,5.4,0.242857,0,0,79.7987,0.497484,0,0.206897,0.655172,0.0689655,0.0689655
Green_YC310_Pro_5B88_260924_202623.csv,2,5,38,15,41770.7,0.127083,5.26992e+06,0.453984,33.9,0,0.65,-2.22045e-16,0.0533333,0.34523,-0.00666667,0.65477,0.606373,0.51359,0.66315,0.1059,0.282995,0.380506,0.444796,2026-09-24 20:26:52,0,6.2,0.3,0,0,79.3872,0.49234,0,0.333333,0.666667,0,0
Green_YC310_Pro_5B88_260924_202907.csv,2,6,40,22,35798,0.103192,5.1582e+06,0.431641,33.96,0.06,0.66,0.01,0.0578947,0.423875,0.00456144,0.576125,0.596564,0.53769,0.687251,0.108581,0.285582,0.378023,0.439727,2026-09-24 20:29:38,0,6.2,0.3,0,0,85.7756,0.572195,0,0.131579,0.842105,0.0263158,0
Green_YC310_Pro_5B88_260924_203150.csv,2,7,39,16,32519.6,0.0900783,5.1869e+06,0.437379,33.89,-0.07,0.648333,-0.0116667,0.0577143,0.420764,-0.000180414,0.579236,0.577227,0.548536,0.698097,0.0965373,0.284447,0.371782,0.434621,2026-09-24 20:32:16,0,6.2,0.3,0,0,82.1053,0.526316,0,0.171429,0.771429,0.0571429,0
Green_YC310_Pro_5B88_260924_203439.csv,2,8,39,27,32738.2,0.0909529,5.20479e+06,0.440958,33.88,-0.01,0.646667,-0.00166633,0.058,0.42569,0.0002857,0.57431,0.584604,0.532865,0.682425,0.0875787,0.285813,0.372989,0.434462,2026-09-24 20:35:05,0,6.1,0.292857,0,0,81.9902,0.524877,0,0.1,0.9,0,0
Green_YC310_Pro_5B88_260924_203723.csv,2,9,38,30,29582.7,0.0783308,5.29621e+06,0.459242,33.9,0.02,0.65,0.003333,0.0558974,0.389439,-0.00210256,0.610561,0.590805,0.508171,0.657732,0.0842041,0.287577,0.370661,0.43037,2026-09-24 20:37:53,0,5.9,0.278571,0,0,82.0144,0.52518,0,0.205128,0.794872,0,0
Green_YC310_Pro_5B88_260924_204007.csv,2,10,36,33,32300.4,0.0892018,5.3636e+06,0.472721,33.91,0.01,0.651667,0.00166667,0.0583784,0.432213,0.00248098,0.567787,0.597005,0.482959,0.632519,0.0850258,0.287929,0.368559,0.427916,2026-09-24 20:40:35,0,5.7,0.264286,0,0,76.5957,0.457446,0,0.0810811,0.918919,0,0
Green_YC310_Pro_5B88_260924_204250.csv,2,11,37,36,31729.9,0.0869197,5.38513e+06,0.477026,33.93,0.02,0.655,0.003333,0.0552632,0.378503,-0.00311524,0.621497,0.612668,0.466249,0.61581,0.0875448,0.288448,0.373189,0.432028,2026-09-24 20:43:18,0,5.5,0.25,0,0,77.2443,0.465554,0,0.236842,0.763158,0,0
Green_YC310_Pro_5B88_260924_204534.csv,2,12,37,29,31471.9,0.0858877,5.44933e+06,0.489866,33.95,0.02,0.658333,0.00333333,0.0536842,0.351279,-0.00157899,0.648721,0.61973,0.44898,0.598541,0.0924936,0.288454,0.372887,0.431719,2026-09-24 20:46:01,0,5.4,0.242857,0,0,78.0042,0.475052,0,0.315789,0.684211,0,0
Green_YC310_Pro_5B88_260924_204818.csv,2,13,36,33,34558.7,0.0982349,5.39395e+06,0.478789,33.95,0,0.658333,3.33333e-07,0.0535135,0.348336,-0.000170686,0.651664,0.657353,0.431711,0.581272,0.0974425,0.287409,0.390366,0.450243,2026-09-24 20:48:47,0,5.3,0.235714,0,0,75.2089,0.440111,0,0.324324,0.675676,0,0
Green_YC310_Pro_5B88_260924_205101.csv,2,14,33,26,37051.3,0.108205,5.45173e+06,0.490345,33.95,0,0.658333,3.33333e-07,0.0523529,0.328327,-0.00116056,0.671673,0.640871,0.426523,0.576084,0.105226,0.285765,0.380058,0.441578,2026-09-24 20:51:29,0,5.3,0.235714,0,0,71.0696,0.38837,0,0.382353,0.617647,0,0
Green_YC310_Pro_5B88_260924_205345.csv,2,15,36,35,37309.5,0.109238,5.37217e+06,0.474433,33.96,0.01,0.66,0.001667,0.0535135,0.348336,0.00116061,0.651664,0.624389,0.432565,0.582126,0.105531,0.286226,0.371751,0.432811,2026-09-24 20:54:15,0,5.3,0.235714,0,0,76.7591,0.459489,0,0.324324,0.675676,0,0
Green_YC310_Pro_5B88_260924_205629.csv,2,16,36,34,35532.4,0.10213,5.40287e+06,0.480574,33.97,0.01,0.661667,0.00166667,0.0578378,0.422894,0.00432434,0.577106,0.628334,0.449838,0.586071,0.106418,0.286565,0.377217,0.437938,2026-09-24 20:56:58,0,5.3,0.235714,0,0,75.6303,0.445379,0,0.108108,0.891892,0,0
Green_YC310_Pro_5B88_260924_205912.csv,2,17,35,33,37606.3,0.110425,5.38228e+06,0.476455,33.97,0,0.661667,-3.33333e-07,0.0516667,0.316494,-0.00617113,0.683506,0.636519,0.44987,0.586103,0.107885,0.286255,0.381808,0.442839,2026-09-24 20:59:39,0,5.3,0.235714,0,0,75.2149,0.440186,0,0.416667,0.583333,0,0
Green_YC310_Pro_5B88_260924_210156.csv,2,18,36,25,38410.1,0.11364,5.40548e+06,0.481096,33.99,0.02,0.665,0.003333,0.052973,0.339017,0.00130627,0.660983,0.648945,0.449903,0.586136,0.102279,0.288489,0.388107,0.446903,2026-09-24 21:02:23,0,5.3,0.235714,0,0,76.0028,0.450035,0,0.351351,0.648649,0,0
Green_YC310_Pro_5B88_260924_210439.csv,2,19,36,35,37939.3,0.111757,5.34722e+06,0.469444,34,0.01,0.666667,0.00166667,0.0556757,0.385615,0.00270268,0.614385,0.639367,0.486403,0.622636,0.0966724,0.290199,0.389997,0.447084,2026-09-24 21:05:05,0,5.3,0.235714,0,0,76.7591,0.459489,0,0.216216,0.783784,0,0
Green_YC310_Pro_5B88_260924_210722.csv,2,20,40,28,29926.2,0.0797047,5.4275e+06,0.4855,34,0,0.666667,-3.33333e-07,0.0533333,0.34523,-0.00234237,0.65477,0.625517,0.481847,0.61808,0.0980508,0.289908,0.381294,0.438672,2026-09-24 21:07:47,0,5.3,0.235714,0,0,83.9748,0.549685,0,0.333333,0.666667,0,0
Green_YC310_Pro_5B88_260924_211007.csv,2,21,35,33,35925.6,0.103702,5.37574e+06,0.475148,33.98,-0.02,0.663333,-0.00333367,0.0577778,0.421858,0.00444448,0.578142,0.61007,0.477291,0.613524,0.0994292,0.288566,0.372363,0.431084,2026-09-24 21:10:34,0,5.3,0.235714,0,0,74.5209,0.431511,0,0.111111,0.888889,0,0
Green_YC310_Pro_5B88_260924_211252.csv,2,22,34,33,38720.4,0.114881,5.36916e+06,0.473832,33.96,-0.02,0.66,-0.003333,0.056,0.391207,-0.0017778,0.608793,0.597299,0.450254,0.600753,0.111246,0.285019,0.360257,0.422524,2026-09-24 21:13:21,0,5.3,0.235714,0,0,72.3918,0.404898,0,0.2,0.8,0,0
Green_YC310_Pro_5B88_260924_211536.csv,2,23,35,34,38789.1,0.115156,5.39137e+06,0.478275,33.95,-0.01,0.658333,-0.00166667,0.0555556,0.383544,-0.000444444,0.616456,0.594106,0.423216,0.59756,0.110628,0.284624,0.353182,0.415843,2026-09-24 21:16:07,0,5.3,0.235714,0,0,74.1002,0.426253,0,0.222222,0.777778,0,0
Green_YC310_Pro_5B88_260924_211819.csv,2,24,35,34,37008.5,0.108034,5.37129e+06,0.474258,33.94,-0.01,0.656667,-0.00166633,0.0583333,0.431437,0.00277773,0.568563,0.601311,0.426611,0.600954,0.11001,0.284229,0.358256,0.421312,2026-09-24 21:18:44,0,5.3,0.235714,0,0,75.3228,0.441535,0,0.0833333,0.916667,0,0
Green_YC310_Pro_5B88_260924_212102.csv,2,25,36,35,36216.3,0.104865,5.36284e+06,0.472567,33.91,-0.03,0.651667,-0.00500033,0.0535135,0.348336,-0.00481979,0.651664,0.617386,0.430005,0.604349,0.110257,0.282601,0.368963,0.433649,2026-09-24 21:21:30,0,5.3,0.235714,0,0,74.8441,0.435551,0,0.324324,0.675676,0,0
Green_YC310_Pro_5B88_260924_212346.csv,2,26,35,31,36947.8,0.107791,5.38105e+06,0.476209,33.88,-0.03,0.646667,-0.00500033,0.0538889,0.354808,0.000375389,0.645192,0.631932,0.425701,0.600045,0.110504,0.280972,0.377214,0.443528,2026-09-24 21:24:12,0,5.3,0.235714,0,0,73.478,0.418475,0,0.305556,0.694444,0,0
Green_YC310_Pro_5B88_260924_212631.csv,2,27,34,33,39035.7,0.116143,5.35843e+06,0.471685,33.84,-0.04,0.64,-0.006667,0.0565714,0.401059,0.00268253,0.598941,0.601039,0.416851,0.591194,0.110077,0.27896,0.359408,0.427733,2026-09-24 21:26:57,0,5.3,0.235714,0,0,74.2899,0.428624,0,0.171429,0.828571,0,0
Green_YC310_Pro_5B88_260924_212916.csv,2,28,35,34,36857.2,0.107429,5.38483e+06,0.476967,33.81,-0.03,0.635,-0.005,0.0588889,0.441015,0.00231749,0.558985,0.594927,0.403453,0.585082,0.109651,0.277474,0.3542,0.424012,2026-09-24 21:29:43,0,5.3,0.235714,0,0,74.1002,0.426253,0,0.0555556,0.944444,0,0
Green_YC310_Pro_5B88_260924_213202.csv,2,29,33,29,36345.1,0.10538,5.38426e+06,0.476852,33.77,-0.04,0.628333,-0.00666667,0.0576471,0.419604,-0.00124184,0.580396,0.588815,0.393419,0.57897,0.104233,0.276516,0.350024,0.420794,2026-09-24 21:32:29,0,5.3,0.235714,0,0,70.2626,0.378283,0,0.147059,0.823529,0.0294118,0
Green_YC310_Pro_5B88_260924_213445.csv,2,30,34,30,34972.8,0.0998911,5.4261e+06,0.48522,33.73,-0.04,0.621667,-0.00666633,0.0554286,0.381355,-0.00221853,0.618645,0.59098,0.38887,0.574421,0.104141,0.274433,0.351624,0.424477,2026-09-24 21:35:13,0,5.3,0.235714,0,0,71.8816,0.39852,0,0.228571,0.771429,0,0
Green_YC310_Pro_5B88_260924_213729.csv,2,31,33,31,37074.8,0.108299,5.41378e+06,0.482757,33.68,-0.05,0.613333,-0.00833367,0.0570588,0.409462,0.00163022,0.590538,0.593146,0.38952,0.575072,0.104334,0.271765,0.354639,0.43016,2026-09-24 21:37:54,0,5.3,0.235714,0,0,70.4125,0.380156,0,0.147059,0.852941,0,0
Green_YC310_Pro_5B88_260924_214012.csv,2,32,33,31,35212.1,0.100848,5.5935e+06,0.518699,33.64,-0.04,0.606667,-0.00666633,0.0582353,0.429746,0.00117649,0.570254,0.573441,0.389884,0.575436,0.106476,0.269211,0.345013,0.423089,2026-09-24 21:40:39,0,5.3,0.235714,0,0,71.4801,0.393501,0,0.0882353,0.911765,0,0
Green_YC310_Pro_5B88_260924_214255.csv,2,33,34,31,38609.2,0.114437,5.78286e+06,0.556572,33.6,-0.04,0.6,-0.006667,0.0588571,0.440468,0.000621843,0.559532,0.578246,0.460541,0.58024,0.110282,0.266305,0.363726,0.444707,2026-09-24 21:43:23,0,5.3,0.235714,0,0,71.6796,0.395995,0,0.0571429,0.942857,0,0
Green_YC310_Pro_5B88_260924_214538.csv,2,34,34,28,38890,0.11556,5.74789e+06,0.549578,33.56,-0.04,0.593333,-0.00666667,0.0577143,0.420764,-0.00114281,0.579236,0.58305,0.44557,0.565269,0.126601,0.260757,0.364637,0.451166,2026-09-24 21:46:04,0,5.3,0.235714,0,0,71.9831,0.399789,0,0.114286,0.885714,0,0
Green_YC310_Pro_5B88_260924_214822.csv,2,35,39,5,47451.3,0.149805,5.9417e+06,0.58834,33.52,-0.04,0.586667,-0.00666633,0.056129,0.393432,-0.00158527,0.606568,0.562549,0.442953,0.562652,0.118798,0.260303,0.353946,0.440929,2026-09-24 21:48:51,0,5.3,0.235714,0,0,83.274,0.540925,0.0322581,0.225806,0.677419,0.0322581,0.0322581
Green_YC310_Pro_5B88_260924_215105.csv,2,36,32,17,39995.3,0.119981,5.73242e+06,0.546483,33.51,-0.01,0.585,-0.001667,0.0624242,0.50197,0.00629524,0.49803,0.555398,0.440336,0.560036,0.110995,0.261425,0.349731,0.435592,2026-09-24 21:51:32,0,5.3,0.235714,0,0,68.1818,0.352272,0,0.0606061,0.757576,0.181818,0
Green_YC310_Pro_5B88_260924_215351.csv,2,37,32,25,25799.8,0.0631992,4.4886e+06,0.297719,33.49,-0.02,0.581667,-0.00333333,0.0587879,0.439274,-0.00363632,0.560726,0.561597,0.434025,0.553725,0.099097,0.262887,0.352557,0.436956,2026-09-24 21:54:17,0,5.3,0.235714,0,0,67.1798,0.339747,0,0.0606061,0.939394,0,0
Green_YC310_Pro_5B88_260924_215635.csv,2,38,35,29,23069.7,0.0522786,4.44278e+06,0.288555,33.41,-0.08,0.568333,-0.0133337,0.055,0.373966,-0.0037879,0.626034,0.610896,0.427714,0.547414,0.0546223,0.268074,0.381519,0.460731,2026-09-24 21:57:04,0,5.3,0.235714,0,0,74.9465,0.436831,0,0.25,0.75,0,0
Green_YC310_Pro_5B88_260924_215918.csv,2,39,38,35,22097.3,0.0483891,4.3983e+06,0.279661,33.34,-0.07,0.556667,-0.0116663,0.0538462,0.354072,-0.00115385,0.645928,0.620287,0.4647,0.556805,0.0531911,0.264698,0.396801,0.479388,2026-09-24 21:59:45,0,5.3,0.235714,0,0,81.2545,0.515681,0,0.307692,0.692308,0,0
Green_YC310_Pro_5B88_260924_220202.csv,2,40,36,28,23215.1,0.0528602,4.39167e+06,0.278334,33.29,-0.05,0.548333,-0.00833367,0.0551351,0.376295,0.00128894,0.623705,0.629679,0.475632,0.566196,0.0517599,0.262373,0.405999,0.490912,2026-09-24 22:02:29,0,5.3,0.235714,0,0,76.0563,0.450704,0,0.243243,0.756757,0,0
Green_YC310_Pro_5B88_260924_220445.csv,2,41,37,27,23782.7,0.0551308,4.36386e+06,0.272773,33.22,-0.07,0.536667,-0.0116663,0.0553846,0.380597,0.000249515,0.619403,0.608091,0.458538,0.549102,0.0507153,0.258915,0.39269,0.481061,2026-09-24 22:05:13,0,5.3,0.235714,0,0,78.8352,0.48544,0.025641,0.230769,0.692308,0.0512821,0
Green_YC310_Pro_5B88_260924_220727.csv,2,42,35,27,21817.9,0.0472718,4.41764e+06,0.283528,33.17,-0.05,0.528333,-0.00833367,0.0561111,0.393123,0.000726511,0.606877,0.598845,0.439471,0.539856,0.0496706,0.256508,0.385215,0.475992,2026-09-24 22:07:53,0,5.3,0.235714,0,0,74.6269,0.432836,0,0.194444,0.805556,0,0
Green_YC310_Pro_5B88_260924_221011.csv,2,43,33,27,21052.6,0.0442103,4.46207e+06,0.292414,33.12,-0.05,0.52,-0.008333,0.0582353,0.429746,0.00212419,0.570254,0.595915,0.424162,0.536926,0.052866,0.253206,0.382058,0.476138,2026-09-24 22:10:39,0,5.3,0.235714,0,0,71.4801,0.393501,0,0.117647,0.852941,0.0294118,0
Green_YC310_Pro_5B88_260924_221253.csv,2,44,35,19,24217.9,0.0568716,4.38957e+06,0.277913,33.06,-0.06,0.51,-0.01,0.0554286,0.381355,-0.00280673,0.618645,0.581963,0.400099,0.522974,0.0560614,0.249378,0.371242,0.46915,2026-09-24 22:13:20,0,5.3,0.235714,0,0,75.1611,0.439514,0,0.285714,0.657143,0.0571429,0
Green_YC310_Pro_5B88_260924_221537.csv,2,45,34,18,26775.5,0.0671022,5.45079e+06,0.490157,32.99,-0.07,0.498333,-0.0116667,0.0587879,0.439274,0.00335928,0.560726,0.55699,0.367283,0.498001,0.0693872,0.242886,0.352769,0.457169,2026-09-24 22:16:05,0,5.3,0.235714,0,0,70.9318,0.386647,0,0.151515,0.757576,0.0909091,0
Green_YC310_Pro_5B88_260924_221822.csv,2,46,30,29,31046.9,0.0841878,5.60457e+06,0.520913,32.96,-0.03,0.493333,-0.00499967,0.0625806,0.504666,0.00379275,0.495334,0.545085,0.349176,0.486096,0.0751233,0.240098,0.343338,0.450526,2026-09-24 22:18:49,0,5.3,0.235714,0,0,63.6042,0.295052,0,0.0322581,0.806452,0.16129,0
Green_YC310_Pro_5B88_260924_222106.csv,2,47,33,25,30858.9,0.0834355,5.54197e+06,0.508393,32.93,-0.03,0.488333,-0.00499967,0.0575,0.417069,-0.0050806,0.582931,0.553037,0.352111,0.48903,0.0808595,0.23731,0.349401,0.459376,2026-09-24 22:21:33,0,5.3,0.235714,0,0,70.8155,0.385194,0,0.125,0.875,0,0
Green_YC310_Pro_5B88_260924_222349.csv,2,48,31,24,28738.8,0.0749551,5.68959e+06,0.537917,32.91,-0.02,0.485,-0.003333,0.0593548,0.449049,0.00185484,0.550951,0.576449,0.364415,0.501335,0.0766256,0.237153,0.365736,0.475869,2026-09-24 22:24:16,0,5.3,0.235714,0,0,67.4402,0.343003,0,0.0967742,0.83871,0.0645161,0
Green_YC310_Pro_5B88_260924_222633.csv,2,49,33,32,27871.5,0.0714861,5.56864e+06,0.513727,32.87,-0.04,0.478333,-0.00666667,0.0552941,0.379037,-0.00406068,0.620963,0.58014,0.361897,0.498816,0.0834691,0.233606,0.368613,0.482292,2026-09-24 22:27:01,0,5.3,0.235714,0,0,70.9169,0.386461,0,0.235294,0.764706,0,0
Green_YC310_Pro_5B88_260924_222916.csv,2,50,32,26,28150.4,0.0726017,5.78058e+06,0.556116,32.83,-0.04,0.471667,-0.00666633,0.06,0.460172,0.0047059,0.539828,0.568504,0.356226,0.493146,0.0903125,0.230059,0.362252,0.479478,2026-09-24 22:29:47,0,5.3,0.235714,0,0,69.6157,0.370196,0,0.030303,0.939394,0.030303,0
Green_YC310_Pro_5B88_260924_223200.csv,2,51,30,20,37284.6,0.109139,5.76451e+06,0.552902,32.78,-0.05,0.463333,-0.00833367,0.0613793,0.483954,0.00137931,0.516046,0.548221,0.36088,0.4978,0.0919768,0.22708,0.353527,0.473733,2026-09-24 22:32:27,0,5.3,0.235714,0,0,66.0793,0.325991,0,0.0344828,0.862069,0.103448,0
Green_YC310_Pro_5B88_260924_223446.csv,2,52,34,26,31906.4,0.0876256,5.70091e+06,0.540181,32.73,-0.05,0.455,-0.008333,0.0605882,0.470314,-0.000791065,0.529686,0.527937,0.3679,0.50482,0.0936411,0.224102,0.345294,0.468479,2026-09-24 22:35:15,0,5.3,0.235714,0,0,72.0339,0.400424,0,0.117647,0.764706,0.0882353,0.0294118
Green_YC310_Pro_5B88_260924_223729.csv,2,53,33,29,29535.8,0.0781431,5.75858e+06,0.551716,32.68,-0.05,0.446667,-0.00833333,0.06,0.460172,-0.0005882,0.539828,0.522337,0.377286,0.514206,0.0901097,0.22222,0.345776,0.470842,2026-09-24 22:37:57,0,5.3,0.235714,0,0,69.6692,0.370865,0,0.0606061,0.878788,0.0606061,0
Green_YC310_Pro_5B88_260924_224013.csv,2,54,33,28,31167.1,0.0846682,5.98781e+06,0.597562,32.64,-0.04,0.44,-0.006667,0.061875,0.4925,0.001875,0.5075,0.516737,0.33663,0.508606,0.0865784,0.220863,0.335521,0.461944,2026-09-24 22:40:41,0,5.3,0.235714,0,0,68.8456,0.36057,0,0.09375,0.71875,0.1875,0
Green_YC310_Pro_5B88_260924_224257.csv,2,55,29,23,34230.9,0.0969238,6.1021e+06,0.620419,32.59,-0.05,0.431667,-0.00833333,0.0621429,0.497118,0.000267857,0.502882,0.481065,0.300517,0.472934,0.0932109,0.216835,0.309704,0.440154,2026-09-24 22:43:24,0,5.3,0.235714,0,0,62.2763,0.278454,0,0,0.892857,0.107143,0
Green_YC310_Pro_5B88_260924_224540.csv,2,56,28,20,34510.2,0.0980406,5.033e+06,0.4066,32.54,-0.05,0.423333,-0.00833367,0.0662069,0.567188,0.004064,0.432812,0.456169,0.267284,0.448038,0.085001,0.215942,0.29052,0.421864,2026-09-24 22:46:08,0,5.3,0.235714,0,0,61.0022,0.262528,0,0,0.689655,0.310345,0
Green_YC310_Pro_5B88_260924_224826.csv,2,57,28,23,27579.4,0.0703177,5.13234e+06,0.426468,32.49,-0.05,0.415,-0.008333,0.0662069,0.567188,-3.44828e-09,0.432812,0.452064,0.268107,0.448861,0.0767911,0.215048,0.290059,0.422297,2026-09-24 22:48:53,0,5.3,0.235714,0,0,60.8696,0.26087,0,0,0.689655,0.310345,0
Green_YC310_Pro_5B88_260924_225110.csv,2,58,29,23,23885.4,0.0555416,5.1307e+06,0.42614,32.43,-0.06,0.405,-0.01,0.0628571,0.509433,-0.00334976,0.490567,0.466408,0.26893,0.449684,0.0718991,0.212928,0.300263,0.434621,2026-09-24 22:51:38,0,5.3,0.235714,0,0,61.3973,0.267466,0,0,0.857143,0.142857,0
Green_YC310_Pro_5B88_260924_225354.csv,2,59,29,25,27832.6,0.0713306,5.06628e+06,0.413256,32.38,-0.05,0.396667,-0.00833333,0.0648276,0.543407,0.00197049,0.456593,0.477369,0.27535,0.456104,0.067007,0.211333,0.309402,0.445355,2026-09-24 22:54:21,0,5.3,0.235714,0,0,62.2763,0.278454,0,0,0.758621,0.241379,0
Green_YC310_Pro_5B88_260924_225640.csv,2,60,29,24,28537.2,0.0741489,5.06258e+06,0.412516,32.33,-0.05,0.388333,-0.00833367,0.062,0.494655,-0.0028276,0.505345,0.484948,0.26702,0.447774,0.0734297,0.20735,0.313581,0.453518,2026-09-24 22:57:10,0,5.3,0.235714,0,0,62.4103,0.280129,0,0,0.9,0.1,0
Green_YC310_Pro_5B88_260924_225923.csv,2,61,27,23,28702.4,0.0748096,5.08251e+06,0.416502,32.29,-0.04,0.381667,-0.00666633,0.0615385,0.486698,-0.000461538,0.513302,0.482798,0.273029,0.453783,0.0689654,0.206191,0.31496,0.456056,2026-09-24 22:59:52,0,5.3,0.235714,0,0,59.6465,0.245581,0,0,0.923077,0.0769231,0
Green_YC310_Pro_5B88_260924_230207.csv,2,62,28,21,27915.5,0.071662,5.29082e+06,0.458165,32.25,-0.04,0.375,-0.006667,0.0627586,0.507735,0.00122012,0.492265,0.480649,0.293377,0.474131,0.0645011,0.205031,0.31932,0.461575,2026-09-24 23:02:37,0,5.3,0.235714,0,0,60.6061,0.257576,0,0.0344828,0.793103,0.172414,0
Green_YC310_Pro_5B88_260924_230449.csv,2,63,31,21,23548.1,0.0541925,5.31062e+06,0.462124,32.2,-0.05,0.366667,-0.00833333,0.066,0.563621,0.0032414,0.436379,0.441928,0.292519,0.473273,0.0664882,0.201984,0.299125,0.444427,2026-09-24 23:05:17,0,5.3,0.235714,0,0,67.2938,0.341173,0,0.0333333,0.666667,0.266667,0.0333333
Green_YC310_Pro_5B88_260924_230733.csv,2,64,29,25,30192.7,0.0807709,5.66968e+06,0.533935,32.16,-0.04,0.36,-0.006667,0.0682759,0.60286,0.00227586,0.39714,0.435851,0.291661,0.472415,0.0692866,0.199291,0.296876,0.444871,2026-09-24 23:08:04,0,5.3,0.235714,0,0,61.6584,0.27073,0,0,0.62069,0.344828,0.0344828
Green_YC310_Pro_5B88_260924_231017.csv,2,65,28,21,25353.1,0.0614122,5.62882e+06,0.525764,32.12,-0.04,0.353333,-0.00666667,0.0641379,0.531516,-0.00413797,0.468484,0.439855,0.257576,0.43833,0.0712026,0.196785,0.293366,0.443867,2026-09-24 23:10:45,0,5.3,0.235714,0,0,61.0465,0.263081,0,0,0.793103,0.206897,0
Green_YC310_Pro_5B88_260924_231301.csv,2,66,28,25,30303.7,0.0812149,5.57991e+06,0.515981,32.08,-0.04,0.346667,-0.00666633,0.065,0.546379,0.0008621,0.453621,0.45394,0.275814,0.452415,0.0686882,0.195214,0.306379,0.458451,2026-09-24 23:13:29,0,5.3,0.235714,0,0,59.1133,0.238916,0,0,0.75,0.25,0
Green_YC310_Pro_5B88_260924_231544.csv,2,67,31,19,25584.5,0.0623378,5.55971e+06,0.511942,32.04,-0.04,0.34,-0.006667,0.0658065,0.560284,0.000806452,0.439716,0.432812,0.288311,0.464912,0.0634375,0.194221,0.298478,0.451544,2026-09-24 23:16:12,0,5.3,0.235714,0,0,66.4761,0.330951,0,0,0.709677,0.290323,0
Green_YC310_Pro_5B88_260924_231827.csv,2,68,30,20,21415,0.04566,5.63533e+06,0.527066,31.99,-0.05,0.331667,-0.00833333,0.0666667,0.575115,0.000860167,0.424885,0.42058,0.295064,0.471665,0.0604588,0.192222,0.294699,0.449763,2026-09-24 23:18:55,0,5.3,0.235714,0,0,63.4697,0.293371,0,0.0333333,0.6,0.366667,0
Green_YC310_Pro_5B88_260924_232112.csv,2,69,28,23,27064.2,0.0682568,5.62089e+06,0.524178,31.97,-0.02,0.328333,-0.00333367,0.0682759,0.60286,0.00160916,0.39714,0.447406,0.2714,0.448001,0.0574801,0.1918,0.305468,0.460954,2026-09-24 23:21:39,0,5.3,0.235714,0,0,60.8696,0.26087,0,0,0.586207,0.413793,0
Green_YC310_Pro_5B88_260924_232357.csv,2,70,29,24,27325,0.0693002,5.58066e+06,0.516132,31.96,-0.01,0.326667,-0.00166633,0.0634483,0.519625,-0.00482762,0.480375,0.474231,0.265375,0.441976,0.0644469,0.189803,0.319571,0.477054,2026-09-24 23:24:26,0,5.3,0.235714,0,0,60.7966,0.259957,0,0,0.827586,0.172414,0
Green_YC310_Pro_5B88_260924_232640.csv,2,71,29,28,26640.1,0.0665603,5.58457e+06,0.516914,31.96,0,0.326667,-3.33333e-07,0.0593333,0.448678,-0.00411497,0.551322,0.482158,0.261222,0.437823,0.0692557,0.188788,0.323147,0.481645,2026-09-24 23:27:10,0,5.3,0.235714,0,0,61.1814,0.264767,0,0.0333333,0.966667,0,0
Green_YC310_Pro_5B88_260924_232923.csv,2,72,28,26,28970.9,0.0758836,5.61026e+06,0.522052,31.97,0.01,0.328333,0.00166633,0.0668966,0.579078,0.00756325,0.420922,0.474628,0.289882,0.466483,0.0719067,0.188754,0.324555,0.483087,2026-09-24 23:29:50,0,5.3,0.235714,0,0,60.4317,0.255396,0,0,0.655172,0.344828,0
Green_YC310_Pro_5B88_260924_233207.csv,2,73,29,27,29313.3,0.0772531,5.55971e+06,0.511941,32,0.03,0.333333,0.00500033,0.062,0.494655,-0.0048966,0.505345,0.478955,0.349481,0.47081,0.0595891,0.192931,0.338369,0.492723,2026-09-24 23:32:36,0,5.3,0.235714,0,0,62.7706,0.284633,0,0,0.9,0.1,0
Green_YC310_Pro_5B88_260924_233450.csv,2,74,35,2,29120.6,0.0764822,5.62895e+06,0.52579,32.04,0.04,0.34,0.006667,0.0632258,0.51579,0.00122581,0.48421,0.509599,0.385942,0.501454,0.0472716,0.197634,0.361776,0.511427,2026-09-24 23:35:19,0,5.3,0.235714,0,0,75.4853,0.443566,0,0.0967742,0.677419,0.193548,0.0322581
Green_YC310_Pro_5B88_260924_233742.csv,2,75,33,8,14322.5,0.01729,5.2664e+06,0.45328,31.98,-0.06,0.33,-0.01,0.0628571,0.509433,-0.000368657,0.490567,0.539242,0.40744,0.522951,0.101411,0.183049,0.384845,0.549082,2026-09-24 23:38:10,0,5.3,0.235714,0,0,69.1824,0.36478,0,0.0714286,0.714286,0.214286,0
Green_YC310_Pro_5B88_260924_234026.csv,2,76,35,1,69917.4,0.23967,4.75026e+06,0.350052,31.96,-0.02,0.326667,-0.00333333,0.0568421,0.405726,-0.00601499,0.594274,0.548663,0.408678,0.52419,0.137554,0.174366,0.391045,0.563965,2026-09-24 23:40:55,0,5.3,0.235714,0,0,76.5306,0.456633,0,0.210526,0.736842,0.0526316,0
Green_YC310_Pro_5B88_260924_234313.csv,2,77,31,26,23396.6,0.0535863,4.36945e+06,0.27389,31.98,0.02,0.33,0.003333,0.059375,0.449397,0.0025329,0.550603,0.558085,0.384726,0.500238,0.118428,0.179456,0.390675,0.558505,2026-09-24 23:43:45,0,5.3,0.235714,0,0,68.5335,0.356669,0,0.09375,0.84375,0.0625,0
Green_YC310_Pro_5B88_260924_234602.csv,2,78,32,18,25300.3,0.0612012,5.36846e+06,0.473692,32.31,0.33,0.385,0.055,0.0606061,0.470622,0.00123106,0.529378,0.53297,0.358516,0.475123,0.0620269,0.208707,0.360162,0.498741,2026-09-24 23:46:31,0,5.3,0.235714,0,0,69.5148,0.368935,0,0.030303,0.909091,0.0606061,0
Green_YC310_Pro_5B88_260924_234848.csv,2,79,32,31,27823.3,0.0712932,5.29051e+06,0.458103,32.65,0.34,0.441667,0.0566667,0.0612121,0.481071,0.000606021,0.518929,0.521963,0.349943,0.46655,0.0687539,0.225153,0.340882,0.463015,2026-09-24 23:49:17,0,5.3,0.235714,0,0,68.1334,0.351667,0,0.030303,0.878788,0.0909091,0
Green_YC310_Pro_5B88_260924_235133.csv,2,80,31,24,28441.8,0.0737674,5.27358e+06,0.454715,32.96,0.31,0.493333,0.0516663,0.0612903,0.482419,7.82226e-05,0.517581,0.511078,0.342321,0.458928,0.0749822,0.240128,0.322869,0.430027,2026-09-24 23:52:03,0,5.3,0.235714,0,0,66.4761,0.330951,0,0,0.935484,0.0645161,0
Green_YC310_Pro_5B88_260924_235424.csv,2,81,31,29,29971.5,0.0798859,5.19884e+06,0.439769,33.22,0.26,0.536667,0.0433337,0.0625,0.503276,0.0012097,0.496724,0.510969,0.340504,0.45882,0.0839072,0.251906,0.313763,0.409143,2026-09-24 23:54:55,0,5.3,0.235714,0,0,67.6856,0.34607,0,0,0.875,0.125,0
Green_YC310_Pro_5B88_260924_235711.csv,2,82,30,28,34517,0.0980682,5.39285e+06,0.47857,33.45,0.23,0.575,0.038333,0.0612903,0.482419,-0.00120968,0.517581,0.51086,0.359771,0.478087,0.0810202,0.264602,0.310041,0.392725,2026-09-24 23:57:39,0,5.3,0.235714,0,0,67.1141,0.338926,0,0,0.935484,0.0645161,0
Green_YC310_Pro_5B88_260924_235957.csv,2,83,31,30,34238.7,0.0969549,5.3345e+06,0.466901,33.64,0.19,0.606667,0.0316667,0.06125,0.481724,-4.03e-05,0.518276,0.534807,0.394318,0.502033,0.0781333,0.275196,0.3243,0.39639,2026-09-25 00:00:25,0,5.3,0.235714,0,0,67.5872,0.34484,0,0.03125,0.875,0.09375,0
Green_YC310_Pro_5B88_260925_000243.csv,2,84,35,21,24549.6,0.0581984,5.65819e+06,0.531638,33.81,0.17,0.635,0.028333,0.0583333,0.431437,-0.00291667,0.568563,0.536957,0.395677,0.503392,0.0878337,0.282081,0.32012,0.385325,2026-09-25 00:03:12,0,5.3,0.235714,0,0,75.9768,0.44971,0,0.138889,0.805556,0.0555556,0
Green_YC310_Pro_5B88_260925_000527.csv,2,85,31,30,38718,0.114872,5.79607e+06,0.559213,33.91,0.1,0.651667,0.0166667,0.061875,0.4925,0.0035417,0.5075,0.528312,0.385117,0.494748,0.0975341,0.285287,0.30975,0.371749,2026-09-25 00:05:55,0,5.3,0.235714,0,0,67.4402,0.343003,0,0.03125,0.84375,0.125,0
Green_YC310_Pro_5B88_260925_000810.csv,2,86,33,31,39883.1,0.119532,5.76234e+06,0.552468,33.9,-0.01,0.65,-0.001667,0.0605882,0.470314,-0.00128676,0.529686,0.513997,0.36264,0.480433,0.12282,0.279422,0.297394,0.365258,2026-09-25 00:08:40,0,5.3,0.235714,0,0,69.2308,0.365385,0,0.0294118,0.911765,0.0588235,0
Green_YC310_Pro_5B88_260925_001054.csv,2,87,33,31,43514,0.134056,5.70665e+06,0.541331,33.87,-0.03,0.645,-0.005,0.0629412,0.510882,0.00235298,0.489118,0.504331,0.376492,0.494285,0.132157,0.275874,0.295861,0.367272,2026-09-25 00:11:24,0,5.3,0.235714,0,0,70.3625,0.379531,0,0,0.852941,0.147059,0
Green_YC310_Pro_5B88_260925_001337.csv,2,88,33,31,45720.4,0.142882,5.83211e+06,0.566421,33.85,-0.02,0.641667,-0.00333333,0.0617647,0.490598,-0.00117649,0.509402,0.499622,0.392213,0.510006,0.142035,0.272737,0.297159,0.371707,2026-09-25 00:14:07,0,5.3,0.235714,0,0,70.7648,0.38456,0,0,0.911765,0.0882353,0
Green_YC310_Pro_5B88_260925_001622.csv,2,89,34,29,47291.9,0.149168,6.01673e+06,0.603347,33.84,-0.01,0.64,-0.001667,0.0628571,0.509433,0.00109244,0.490567,0.51498,0.396079,0.513872,0.132016,0.274328,0.306896,0.379855,2026-09-25 00:16:49,0,5.3,0.235714,0,0,71.7804,0.397255,0,0,0.857143,0.142857,0
Green_YC310_Pro_5B88_260925_001906.csv,2,90,35,32,39883.2,0.119533,4.87313e+06,0.374627,33.86,0.02,0.643333,0.00333333,0.0582857,0.430616,-0.00457139,0.569384,0.534805,0.415033,0.532827,0.121997,0.277494,0.321272,0.391064,2026-09-25 00:19:34,0,5.3,0.235714,0,0,72.5138,0.406423,0,0.0857143,0.914286,0,0
Green_YC310_Pro_5B88_260925_002151.csv,2,91,36,17,33706.6,0.0948263,4.91511e+06,0.383023,33.88,0.02,0.646667,0.00333367,0.0583784,0.432213,9.26784e-05,0.567787,0.544464,0.417515,0.535308,0.113307,0.28038,0.32653,0.393436,2026-09-25 00:22:20,0,5.3,0.235714,0,0,75.3138,0.441422,0,0.108108,0.864865,0.027027,0
Green_YC310_Pro_5B88_260925_002434.csv,2,92,33,31,40774.2,0.123097,4.86798e+06,0.373596,33.9,0.02,0.65,0.003333,0.0611765,0.480456,0.00279807,0.519544,0.547217,0.412223,0.530017,0.103218,0.283562,0.326305,0.390029,2026-09-25 00:25:02,0,5.3,0.235714,0,0,71.6872,0.39609,0,0.0294118,0.882353,0.0882353,0
Green_YC310_Pro_5B88_260925_002717.csv,2,93,34,32,38355.6,0.113423,4.85874e+06,0.371749,33.93,0.03,0.655,0.005,0.0577143,0.420764,-0.00346221,0.579236,0.54997,0.400332,0.518126,0.0917296,0.287564,0.324375,0.384097,2026-09-25 00:27:48,0,5.3,0.235714,0,0,73.2233,0.415291,0,0.114286,0.885714,0,0
Green_YC310_Pro_5B88_260925_003000.csv,2,94,33,23,25090.6,0.0603623,4.76201e+06,0.352402,33.97,0.04,0.661667,0.00666667,0.0576471,0.419604,-6.72412e-05,0.580396,0.545955,0.389616,0.514111,0.084682,0.291154,0.318566,0.374697,2026-09-25 00:30:31,0,5.3,0.235714,0,0,70.2626,0.378283,0,0.176471,0.764706,0.0588235,0
Green_YC310_Pro_5B88_260925_003244.csv,2,95,32,21,31544.5,0.0861782,5.3482e+06,0.46964,33.95,-0.02,0.658333,-0.00333367,0.061875,0.4925,0.0042279,0.5075,0.533806,0.350288,0.501962,0.0776344,0.291592,0.304253,0.359947,2026-09-25 00:33:12,0,5.3,0.235714,0,0,70.0219,0.375274,0,0.03125,0.84375,0.125,0
Green_YC310_Pro_5B88_260925_003527.csv,2,96,30,20,33726.6,0.0949065,5.3703e+06,0.474061,33.93,-0.02,0.655,-0.003333,0.06,0.460172,-0.001875,0.539828,0.505287,0.360808,0.512482,0.0743184,0.291241,0.291136,0.347181,2026-09-25 00:35:56,0,5.3,0.235714,0,0,63.7845,0.297306,0,0.0322581,0.935484,0.0322581,0
Green_YC310_Pro_5B88_260925_003812.csv,2,97,35,19,22603.6,0.0504143,5.3479e+06,0.46958,33.92,-0.01,0.653333,-0.00166667,0.0630303,0.512419,0.0030303,0.487581,0.468533,0.372172,0.523846,0.0749231,0.290588,0.273249,0.329948,2026-09-25 00:38:42,0,5.3,0.235714,0,0,74.7863,0.434829,0,0.181818,0.515152,0.272727,0.030303
Green_YC310_Pro_5B88_260925_004056.csv,2,98,32,15,23153.5,0.052614,5.2556e+06,0.45112,33.99,0.07,0.665,0.011667,0.069375,0.62181,0.0063447,0.37819,0.393102,0.38438,0.536054,0.0794484,0.29331,0.231212,0.285188,2026-09-25 00:41:24,0,5.3,0.235714,0,0,66.8058,0.335073,0,0,0.53125,0.46875,0
Green_YC310_Pro_5B88_260925_004339.csv,2,99,31,13,43829.3,0.135317,5.80715e+06,0.561429,34.14,0.15,0.69,0.025,0.073125,0.686466,0.00375,0.313534,0.368839,0.36054,0.512214,0.108706,0.295015,0.207669,0.259941,2026-09-25 00:44:11,0,5.3,0.235714,0,0,66.7145,0.333931,0,0,0.34375,0.65625,0
Green_YC310_Pro_5B88_260925_004624.csv,2,100,32,21,44546.7,0.138187,5.71809e+06,0.543619,34.36,0.22,0.726667,0.0366667,0.0715152,0.65871,-0.00160985,0.34129,0.344577,0.343332,0.495006,0.143171,0.299298,0.183172,0.23116,2026-09-25 00:46:57,0,5.3,0.235714,0,0,69.0647,0.363309,0,0,0.484848,0.454545,0.0606061
Green_YC310_Pro_5B88_260925_004910.csv,2,101,29,25,51334.8,0.165339,5.61055e+06,0.522109,34.56,0.2,0.76,0.033333,0.0693333,0.621092,-0.00218187,0.378908,0.3806,0.350712,0.502386,0.157078,0.306871,0.198212,0.238627,2026-09-25 00:49:41,0,5.3,0.235714,0,0,65.0224,0.31278,0,0,0.533333,0.466667,0
Green_YC310_Pro_5B88_260925_005156.csv,2,102,34,25,51927,0.167708,5.64991e+06,0.529981,34.72,0.16,0.786667,0.0266667,0.0668571,0.578399,-0.00247616,0.421601,0.378377,0.353003,0.504677,0.189658,0.308399,0.19211,0.230998,2026-09-25 00:52:25,0,5.3,0.235714,0,0,73.1183,0.413979,0,0.0285714,0.6,0.371429,0
Green_YC310_Pro_5B88_260925_005440.csv,2,103,29,19,68982.1,0.235928,5.61479e+06,0.522959,34.84,0.12,0.806667,0.0199997,0.072,0.667069,0.0051429,0.332931,0.385271,0.319377,0.471051,0.207162,0.311009,0.18498,0.221258,2026-09-25 00:55:09,0,5.3,0.235714,0,0,61.7021,0.271276,0,0,0.4,0.6,0
Green_YC310_Pro_5B88_260925_005727.csv,2,104,31,18,58974.8,0.195899,5.56611e+06,0.513222,34.95,0.11,0.825,0.018333,0.065,0.546379,-0.007,0.453621,0.395192,0.297322,0.448996,0.213702,0.315408,0.182284,0.214162,2026-09-25 00:57:55,0,5.3,0.235714,0,0,65.678,0.320975,0,0.0625,0.625,0.3125,0
Green_YC310_Pro_5B88_260925_010012.csv,2,105,29,23,66771.1,0.227084,5.51576e+06,0.503151,35.05,0.1,0.841667,0.0166667,0.0686667,0.609598,0.00366667,0.390402,0.399023,0.299714,0.451388,0.218024,0.31975,0.181594,0.209129,2026-09-25 01:00:40,0,5.3,0.235714,0,0,62.5449,0.281811,0,0,0.566667,0.433333,0
Green_YC310_Pro_5B88_260925_010257.csv,2,106,29,24,65507,0.222028,5.55544e+06,0.511087,35.12,0.07,0.853333,0.0116663,0.0713333,0.655575,0.00266663,0.344425,0.397107,0.294177,0.449473,0.226028,0.321738,0.177037,0.202584,2026-09-25 01:03:28,0,5.3,0.235714,0,0,62.2763,0.278454,0,0,0.433333,0.566667,0
Green_YC310_Pro_5B88_260925_010540.csv,2,107,29,15,66727.4,0.22691,5.42427e+06,0.484855,35.19,0.07,0.865,0.011667,0.0653333,0.552126,-0.00599997,0.447874,0.39899,0.286845,0.442141,0.228973,0.324795,0.174233,0.196724,2026-09-25 01:06:09,0,5.3,0.235714,0,0,64.3491,0.304364,0,0,0.733333,0.266667,0
Green_YC310_Pro_5B88_260925_010824.csv,2,108,30,24,69495.1,0.23798,5.36764e+06,0.473528,35.25,0.06,0.875,0.01,0.0686667,0.609598,0.00333337,0.390402,0.404671,0.277718,0.433014,0.249243,0.323668,0.173517,0.197136,2026-09-25 01:08:52,0,5.3,0.235714,0,0,62.8053,0.285066,0,0,0.566667,0.433333,0
Green_YC310_Pro_5B88_260925_011110.csv,2,109,28,22,80710,0.28284,5.37834e+06,0.475668,35.31,0.06,0.885,0.01,0.0703448,0.638532,0.00167813,0.361468,0.392219,0.288374,0.443669,0.251022,0.326445,0.166759,0.1876,2026-09-25 01:11:38,0,5.3,0.235714,0,0,60.0858,0.251072,0,0,0.482759,0.517241,0
Green_YC310_Pro_5B88_260925_011355.csv,2,110,31,25,65245.8,0.220983,5.49776e+06,0.499552,35.37,0.06,0.895,0.01,0.0675,0.589483,-0.0028448,0.410517,0.385866,0.297967,0.453263,0.252473,0.329292,0.163196,0.18119,2026-09-25 01:14:24,0,5.3,0.235714,0,0,66.9065,0.336331,0,0,0.625,0.375,0
Green_YC310_Pro_5B88_260925_011641.csv,2,111,30,25,76137.1,0.264548,5.30718e+06,0.461435,35.4,0.03,0.9,0.005,0.0693333,0.621092,0.00183333,0.378908,0.385613,0.306498,0.461793,0.253597,0.330631,0.163828,0.180483,2026-09-25 01:17:12,0,5.3,0.235714,0,0,63.3803,0.292254,0,0,0.533333,0.466667,0
Green_YC310_Pro_5B88_260925_011926.csv,2,112,29,20,81552.6,0.28621,5.46315e+06,0.49263,35.46,0.06,0.91,0.01,0.07,0.632586,0.0006667,0.367414,0.359751,0.296407,0.451703,0.263747,0.33164,0.145247,0.160893,2026-09-25 01:19:54,0,5.3,0.235714,0,0,63.2727,0.290909,0,0,0.533333,0.433333,0.0333333
Green_YC310_Pro_5B88_260925_012210.csv,2,113,29,24,79169.6,0.276678,5.47637e+06,0.495274,35.49,0.03,0.915,0.005,0.072,0.667069,0.002,0.332931,0.379128,0.27584,0.431136,0.273898,0.331073,0.150823,0.167036,2026-09-25 01:22:39,0,5.3,0.235714,0,0,62.4103,0.280129,0,0,0.4,0.6,0
Green_YC310_Pro_5B88_260925_012455.csv,2,114,28,23,75396.1,0.261585,5.45305e+06,0.490609,35.53,0.04,0.921667,0.00666667,0.0655172,0.555297,-0.00648276,0.444703,0.387628,0.270822,0.426118,0.274898,0.332964,0.153206,0.167528,2026-09-25 01:25:24,0,5.3,0.235714,0,0,60.5187,0.256484,0,0,0.724138,0.275862,0
Green_YC310_Pro_5B88_260925_012740.csv,2,115,28,24,81690,0.28676,5.36859e+06,0.473718,35.57,0.04,0.928333,0.00666633,0.0692857,0.620271,0.00376851,0.379729,0.38525,0.265804,0.42374,0.275899,0.334855,0.149498,0.161929,2026-09-25 01:28:09,0,5.3,0.235714,0,0,60.7375,0.259219,0,0,0.535714,0.464286,0
Green_YC310_Pro_5B88_260925_013025.csv,2,116,29,22,82553,0.290212,5.32496e+06,0.464993,35.6,0.03,0.933333,0.00500033,0.0724138,0.674203,0.00312809,0.325797,0.385778,0.263109,0.421044,0.276899,0.33622,0.148234,0.1593,2026-09-25 01:30:54,0,5.3,0.235714,0,0,62.01,0.275125,0,0,0.37931,0.62069,0
Green_YC310_Pro_5B88_260925_013312.csv,2,117,28,22,82421.6,0.289686,5.31991e+06,0.463982,35.63,0.03,0.938333,0.00500033,0.0689655,0.61475,-0.00344828,0.38525,0.386307,0.2638,0.421573,0.2779,0.337585,0.147673,0.157374,2026-09-25 01:33:42,0,5.3,0.235714,0,0,59.8717,0.248396,0,0,0.551724,0.448276,0
Green_YC310_Pro_5B88_260925_013556.csv,2,118,29,23,76397,0.265588,5.48863e+06,0.497726,35.65,0.02,0.941667,0.00333367,0.0653333,0.552126,-0.00363217,0.447874,0.427988,0.267878,0.425651,0.281373,0.337903,0.171196,0.180579,2026-09-25 01:36:27,0,5.3,0.235714,0,0,60.0414,0.250518,0,0,0.733333,0.266667,0
Green_YC310_Pro_5B88_260925_013840.csv,2,119,30,22,81794.7,0.287179,5.4468e+06,0.489359,35.68,0.03,0.946667,0.00499967,0.0651613,0.54916,-0.00017201,0.45084,0.406144,0.286845,0.444618,0.284845,0.338746,0.161906,0.170447,2026-09-25 01:39:10,0,5.3,0.235714,0,0,64.3777,0.304721,0,0,0.741935,0.258065,0
Green_YC310_Pro_5B88_260925_014125.csv,2,120,30,22,86025.7,0.304103,5.50828e+06,0.501656,35.71,0.03,0.951667,0.00499967,0.0716129,0.660395,0.0064516,0.339605,0.38688,0.294828,0.452601,0.290214,0.339189,0.151778,0.159875,2026-09-25 01:43:12,0,5.3,0.235714,0,0,64.4238,0.305297,0,0,0.419355,0.580645,0
Green_YC310_Pro_5B88_260925_014408.csv,2,121,30,23,80423.8,0.281695,5.45049e+06,0.490098,35.73,0.02,0.955,0.003333,0.0670968,0.582531,-0.00451613,0.417469,0.392441,0.302811,0.458162,0.299231,0.338336,0.155885,0.164836,2026-09-25 01:44:42,0,5.3,0.235714,0,0,64.194,0.302425,0,0,0.645161,0.354839,0
Green_YC310_Pro_5B88_260925_014652.csv,2,122,30,27,92357.8,0.329431,5.40814e+06,0.481627,35.74,0.01,0.956667,0.00166667,0.0683871,0.604778,0.0012903,0.395222,0.402452,0.301283,0.456634,0.305018,0.337639,0.16084,0.170487,2026-09-25 01:47:22,0,5.3,0.235714,0,0,64.0569,0.300711,0,0,0.580645,0.419355,0
Green_YC310_Pro_5B88_260925_014936.csv,2,123,30,22,79878.9,0.279516,5.47481e+06,0.494962,35.77,0.03,0.961667,0.00499967,0.068,0.598103,-0.0003871,0.401897,0.399689,0.303279,0.45863,0.300443,0.340182,0.158708,0.165812,2026-09-25 01:50:06,0,5.3,0.235714,0,0,64.0569,0.300711,0,0,0.6,0.4,0
Green_YC310_Pro_5B88_260925_015220.csv,2,124,31,24,81918.7,0.287675,5.37914e+06,0.475829,35.79,0.02,0.965,0.003333,0.068125,0.600259,0.000125,0.399741,0.419009,0.278723,0.434074,0.292383,0.342935,0.163756,0.168107,2026-09-25 01:53:14,0,5.3,0.235714,0,0,64.6732,0.308415,0,0,0.59375,0.40625,0
Green_YC310_Pro_5B88_260925_015505.csv,2,125,72,5,87489.9,0.309959,5.43066e+06,0.486131,35.59,-0.2,0.931667,-0.0333333,0.0632836,0.516786,-0.00484142,0.483214,0.45539,0.374513,0.470455,0.313999,0.32786,0.210709,0.230135,2026-09-25 01:58:17,0,5.3,0.235714,0,0,72.605,0.407563,0,0.0447761,0.746269,0.208955,0
Green_YC310_Pro_5B88_260925_015505.csv,2,126,72,5,87489.9,0.309959,5.43066e+06,0.486131,35.59,0,0.931667,-3.33333e-07,0.0632836,0.516786,-1.79104e-08,0.483214,0.471434,0.368295,0.464236,0.3228,0.326002,0.218401,0.239685,2026-09-25 02:00:07,0,5.3,0.235714,0,0,72.605,0.407563,0,0.0447761,0.746269,0.208955,0
Green_YC310_Pro_5B88_260925_020031.csv,2,127,29,28,97120.5,0.348482,5.51507e+06,0.503014,34.78,-0.81,0.796667,-0.135,0.0653333,0.552126,0.00204973,0.447874,0.458597,0.31649,0.451399,0.326824,0.282587,0.227443,0.292142,2026-09-25 02:01:00,0,5.3,0.235714,0,0,63.1808,0.28976,0,0,0.733333,0.266667,0
Green_YC310_Pro_5B88_260925_020315.csv,2,128,28,27,94247.5,0.33699,5.56811e+06,0.513622,34.32,-0.46,0.72,-0.076667,0.0655172,0.555297,0.000183941,0.444703,0.44576,0.276871,0.438562,0.330849,0.257565,0.227351,0.317072,2026-09-25 02:04:16,0,5.3,0.235714,0,0,60.1719,0.252149,0,0,0.724138,0.275862,0
Green_YC310_Pro_5B88_260925_020558.csv,2,129,28,27,86768.7,0.307075,5.5955e+06,0.5191,33.96,-0.36,0.66,-0.06,0.0655172,0.555297,4.13793e-08,0.444703,0.438097,0.257241,0.430899,0.297247,0.245742,0.230979,0.332522,2026-09-25 02:06:27,0,5.3,0.235714,0,0,60.9579,0.261974,0,0,0.724138,0.275862,0
Green_YC310_Pro_5B88_260925_020843.csv,2,130,29,28,80467.1,0.281869,5.64411e+06,0.528823,33.73,-0.23,0.621667,-0.0383333,0.0666667,0.575115,0.00114947,0.424885,0.38655,0.257601,0.431259,0.278319,0.237653,0.209854,0.319487,2026-09-25 02:09:13,0,5.3,0.235714,0,0,60.8392,0.26049,0,0,0.666667,0.333333,0
Green_YC310_Pro_5B88_260925_021127.csv,2,131,28,26,71503.3,0.246013,5.71881e+06,0.543763,33.52,-0.21,0.586667,-0.0350003,0.0710345,0.650422,0.00436778,0.349578,0.36279,0.258526,0.432184,0.260023,0.230481,0.20374,0.320545,2026-09-25 02:12:08,0,5.3,0.235714,0,0,60.2582,0.253228,0,0,0.448276,0.551724,0
Green_YC310_Pro_5B88_260925_021411.csv,2,132,28,27,73934.1,0.255736,5.67956e+06,0.535913,33.36,-0.16,0.56,-0.026667,0.0731034,0.686094,0.00206895,0.313906,0.325797,0.253642,0.427301,0.245417,0.225158,0.187343,0.309471,2026-09-25 02:14:39,0,5.3,0.235714,0,0,61.1799,0.264749,0,0,0.344828,0.655172,0
Green_YC310_Pro_5B88_260925_021655.csv,2,133,28,27,67680.3,0.230721,5.7709e+06,0.55418,33.24,-0.12,0.54,-0.02,0.0731034,0.686094,4.82759e-08,0.313906,0.323532,0.242951,0.425036,0.234502,0.221157,0.187851,0.313981,2026-09-25 02:18:33,0,5.3,0.235714,0,0,60.2151,0.252689,0,0,0.344828,0.655172,0
Green_YC310_Pro_5B88_260925_021938.csv,2,134,27,26,64262.3,0.217049,5.85238e+06,0.570475,33.1,-0.14,0.516667,-0.0233333,0.0714286,0.657217,-0.00167483,0.342783,0.335422,0.242925,0.42501,0.218336,0.217213,0.199172,0.329244,2026-09-25 02:20:11,0,5.3,0.235714,0,0,57.6923,0.221154,0,0,0.428571,0.571429,0
Green_YC310_Pro_5B88_260925_022222.csv,2,135,28,26,61809.8,0.207239,5.8533e+06,0.57066,32.98,-0.12,0.496667,-0.0200003,0.0710345,0.650422,-0.000394117,0.349578,0.35524,0.2429,0.424984,0.188774,0.21715,0.214264,0.3444,2026-09-25 02:22:50,0,5.3,0.235714,0,0,60.1719,0.252149,0,0,0.448276,0.551724,0
Green_YC310_Pro_5B88_260925_022507.csv,2,136,28,27,60640.9,0.202564,6.05189e+06,0.610379,32.9,-0.08,0.483333,-0.0133337,0.0696552,0.626641,-0.00137933,0.373359,0.350823,0.24897,0.431055,0.187476,0.21322,0.215719,0.349785,2026-09-25 02:25:36,0,5.3,0.235714,0,0,60.4317,0.255396,0,0,0.517241,0.482759,0
Green_YC310_Pro_5B88_260925_022750.csv,2,137,29,28,48156.4,0.152626,5.02893e+06,0.405787,32.81,-0.09,0.468333,-0.0149997,0.072,0.667069,0.0023448,0.332931,0.346407,0.266009,0.448094,0.159001,0.214504,0.219789,0.352571,2026-09-25 02:28:18,0,5.3,0.235714,0,0,61.2676,0.265845,0,0,0.4,0.6,0
Green_YC310_Pro_5B88_260925_023034.csv,2,138,29,27,40453.1,0.121812,5.1172e+06,0.423439,32.67,-0.14,0.445,-0.023333,0.072,0.667069,2.77556e-17,0.332931,0.334516,0.266064,0.448149,0.147009,0.209679,0.217808,0.355415,2026-09-25 02:31:02,0,5.3,0.235714,0,0,62.1429,0.276786,0,0,0.4,0.6,0
Green_YC310_Pro_5B88_260925_023318.csv,2,139,28,27,45127.8,0.140511,5.07794e+06,0.415587,32.58,-0.09,0.43,-0.015,0.0717241,0.662313,-0.000275862,0.337687,0.285036,0.269759,0.451844,0.135018,0.207482,0.193867,0.333671,2026-09-25 02:33:47,0,5.3,0.235714,0,0,60.4317,0.255396,0,0,0.413793,0.586207,0
Green_YC310_Pro_5B88_260925_023606.csv,2,140,21,16,47056,0.148224,5.28638e+06,0.457276,32.5,-0.08,0.416667,-0.0133333,0.077,0.753276,0.0052759,0.246724,0.235556,0.270703,0.452787,0.127242,0.20492,0.169021,0.311387,2026-09-25 02:36:35,0,5.3,0.235714,0,0,63.3166,0.291458,0,0,0.15,0.85,0
Green_YC310_Pro_5B88_260925_023852.csv,2,141,27,10,34620.6,0.0984825,5.3592e+06,0.471839,32.99,0.49,0.498333,0.0816663,0.0835714,0.866576,0.00657143,0.133424,0.286091,0.265254,0.447339,0.121798,0.231818,0.179855,0.295322,2026-09-25 02:39:23,0,5.3,0.235714,0,0,61.0399,0.262999,0,0,0.0714286,0.678571,0.25
Green_YC310_Pro_5B88_260925_024136.csv,2,142,27,20,45500.9,0.142004,5.06378e+06,0.412756,33.37,0.38,0.561667,0.0633337,0.0622222,0.498487,-0.0213492,0.501513,0.336626,0.26891,0.450995,0.126134,0.250872,0.196248,0.292662,2026-09-25 02:42:05,0,5.3,0.235714,0,0,59.1241,0.239051,0,0,0.888889,0.111111,0
Green_YC310_Pro_5B88_260925_024422.csv,2,143,30,21,44045.4,0.136182,5.15958e+06,0.431917,33.39,0.02,0.565,0.003333,0.06,0.460172,-0.0022222,0.539828,0.460203,0.280172,0.462257,0.137915,0.249435,0.267125,0.364977,2026-09-25 02:44:51,0,5.3,0.235714,0,0,64.194,0.302425,0,0,1,0,0
Green_YC310_Pro_5B88_260925_024706.csv,2,144,29,18,43890,0.13556,5.16297e+06,0.432595,33.36,-0.03,0.56,-0.005,0.062069,0.495844,0.00206897,0.504156,0.515834,0.287448,0.469533,0.106833,0.254422,0.300791,0.393656,2026-09-25 02:47:35,0,5.3,0.235714,0,0,62.1429,0.276786,0,0,0.896552,0.103448,0
Green_YC310_Pro_5B88_260925_024950.csv,2,145,29,16,38219.5,0.112878,5.26093e+06,0.452186,33.34,-0.02,0.556667,-0.00333333,0.0614286,0.484803,-0.000640429,0.515197,0.481649,0.272286,0.454371,0.1067,0.253399,0.279162,0.373049,2026-09-25 02:50:20,0,5.3,0.235714,0,0,63.5036,0.293795,0,0,0.928571,0.0714286,0
Green_YC310_Pro_5B88_260925_025236.csv,2,146,27,25,27915.6,0.0716623,5.24508e+06,0.449015,33.14,-0.2,0.523333,-0.0333337,0.0685714,0.607956,0.00714283,0.392044,0.465094,0.294,0.476085,0.0866692,0.247119,0.281072,0.381239,2026-09-25 02:53:05,0,5.3,0.235714,0,0,57.9814,0.224768,0,0,0.571429,0.428571,0
Green_YC310_Pro_5B88_260925_025524.csv,2,147,29,25,30411.3,0.0816452,5.30751e+06,0.461502,32.76,-0.38,0.46,-0.063333,0.0662069,0.567188,-0.0023645,0.432812,0.48804,0.363439,0.499031,0.069989,0.230672,0.321024,0.437638,2026-09-25 02:55:55,0,5.3,0.235714,0,0,62.8613,0.285766,0,0.0344828,0.62069,0.344828,0
Green_YC310_Pro_5B88_260925_025808.csv,2,148,38,25,21250.9,0.0450035,5.83451e+06,0.566902,32.35,-0.41,0.391667,-0.0683333,0.0574359,0.415964,-0.008771,0.584036,0.467639,0.391933,0.527526,0.0703743,0.209046,0.32919,0.46743,2026-09-25 02:58:39,0,5.3,0.235714,0,0,80.1688,0.50211,0,0.128205,0.871795,0,0
Green_YC310_Pro_5B88_260925_030055.csv,2,149,34,16,38000.1,0.112,5.86603e+06,0.573206,32.01,-0.34,0.335,-0.056667,0.0721212,0.669159,0.0146853,0.330841,0.40903,0.420428,0.55602,0.0844743,0.188202,0.313626,0.47271,2026-09-25 03:01:26,0,5.3,0.235714,0,0,72.0339,0.400424,0,0.0909091,0.30303,0.515152,0.0909091
Green_YC310_Pro_5B88_260925_030338.csv,2,150,31,19,40986.3,0.123945,5.89663e+06,0.579327,31.85,-0.16,0.308333,-0.0266667,0.0686667,0.609598,-0.00345453,0.390402,0.353109,0.377293,0.512886,0.0996024,0.176599,0.278676,0.449363,2026-09-25 03:04:08,0,5.3,0.235714,0,0,67.0996,0.338745,0,0.0666667,0.533333,0.3,0.1
Green_YC310_Pro_5B88_260925_030624.csv,2,151,33,18,32597,0.090388,5.85551e+06,0.571101,31.85,0,0.308333,3.33333e-07,0.0731034,0.686094,0.00443675,0.313906,0.338084,0.349702,0.497861,0.131299,0.169906,0.264526,0.441906,2026-09-25 03:06:54,0,5.3,0.235714,0,0,69.8166,0.372707,0,0,0.413793,0.517241,0.0689655
Green_YC310_Pro_5B88_260925_030908.csv,2,152,31,11,35870.1,0.10348,5.6102e+06,0.522039,31.88,0.03,0.313333,0.00500033,0.0733333,0.690057,0.000229933,0.309943,0.309522,0.344076,0.492235,0.179565,0.161291,0.246362,0.432358,2026-09-25 03:09:38,0,5.3,0.235714,0,0,65.1717,0.314646,0,0,0.466667,0.4,0.133333
Green_YC310_Pro_5B88_260925_031153.csv,2,153,32,4,77185.2,0.268741,5.90704e+06,0.581409,32.06,0.18,0.343333,0.0300003,0.0736364,0.695282,0.000303064,0.304718,0.339774,0.344873,0.493033,0.175914,0.17152,0.257469,0.433235,2026-09-25 03:12:26,0,5.3,0.235714,0,0,68.1334,0.351667,0,0.0909091,0.363636,0.318182,0.227273
Green_YC310_Pro_5B88_260925_031437.csv,2,154,32,28,29859.4,0.0794377,5.66749e+06,0.533498,32.15,0.09,0.358333,0.0150003,0.0678788,0.596014,-0.00575761,0.403986,0.370026,0.382293,0.523284,0.149196,0.181892,0.279189,0.444584,2026-09-25 03:15:11,0,5.3,0.235714,0,0,69.4645,0.368306,0,0.030303,0.545455,0.424242,0
Green_YC310_Pro_5B88_260925_031721.csv,2,155,35,15,31278.8,0.0851152,5.5534e+06,0.51068,32.27,0.12,0.378333,0.0200003,0.0660606,0.564666,-0.00181819,0.435334,0.371768,0.409011,0.525026,0.0994098,0.198711,0.281719,0.430294,2026-09-25 03:17:54,0,5.3,0.235714,0,0,74.1525,0.426906,0,0.121212,0.545455,0.242424,0.0909091
Green_YC310_Pro_5B88_260925_032005.csv,2,156,35,10,39845.6,0.119382,5.52471e+06,0.504941,32.35,0.08,0.391667,0.0133337,0.0733333,0.690057,0.00727273,0.309943,0.440863,0.489499,0.594121,0.0868372,0.20557,0.334479,0.476195,2026-09-25 03:20:33,0,5.3,0.235714,0,0,73.4266,0.417832,0,0.030303,0.363636,0.515152,0.0909091
Green_YC310_Pro_5B88_260925_032253.csv,2,157,46,12,20430,0.0417199,4.36813e+06,0.273626,32.49,0.14,0.415,0.023333,0.0502326,0.291768,-0.0231007,0.708232,0.554585,0.566363,0.670985,0.104102,0.209281,0.409476,0.547481,2026-09-25 03:23:23,0,5.3,0.235714,0,0,95.6341,0.695426,0,0.511628,0.465116,0.0232558,0
Green_YC310_Pro_5B88_260925_032536.csv,2,158,36,27,26443.3,0.0657733,4.59654e+06,0.319308,32.58,0.09,0.43,0.015,0.0627778,0.508065,0.0125452,0.491935,0.575818,0.535525,0.640147,0.151205,0.204064,0.411955,0.555177,2026-09-25 03:26:08,0,5.3,0.235714,0,0,76.5415,0.456769,0,0.0277778,0.805556,0.166667,0
Green_YC310_Pro_5B88_260925_032820.csv,2,159,37,6,75172.7,0.260691,5.70351e+06,0.540702,32.8,0.22,0.466667,0.0366667,0.0558621,0.388829,-0.00691573,0.611171,0.611171,0.533135,0.637757,0.260691,0.192505,0.423922,0.578704,2026-09-25 03:28:49,0,5.3,0.235714,0,0,82.6508,0.533135,0.0344828,0.206897,0.689655,0.0689655,0
