Sheet Name,Segment,Index,total_beat_count,Sel_Min,diff,diff_n,mean,mean_n,temp,temp_raw_diff,temp_n,temp_diff,rise_low,rise_low_n,rise_low_diff,rise_low_n_inv,rise_low_n_inv_center,HR_n_center,HR_n_center_lim,diff_n_center,diff_anker,rl_inv_corr,inv_corr,datetime,time_gap_seconds,CGM,CGM_n,SMBG,SMBG_n,HR,HR_n,r20,r40,r60,r80,r100,time_gap_state,time_gap_slot,time_gap_offset_s,rise_low_50
Green_YC310_Pro_5B88_261008_035117.csv,1,1,19,5,44006.4,0.136026,4.39657e+06,0.279313,33.57,0,0.595,0,0.0495128,0.279359,0,0.720641,0.720641,0.311504,0.311504,0.136026,0.259293,0.301362,0.344322,2026-10-08 03:51:17,0,6.1,0.292857,6,0.285714,64.9203,0.311504,0,0.111111,0.888889,0,0,0,-1,-1,0.112222
Green_YC310_Pro_5B88_261008_035347.csv,1,2,20,18,28386,0.0735439,4.27514e+06,0.255027,33.66,0.09,0.61,0.015,0.0527416,0.335027,0.00322877,0.664973,0.660717,0.325879,0.325879,0.0953891,0.272603,0.301362,0.321114,2026-10-08 03:53:47,150,6.1,0.292857,0,0,68.6499,0.358124,0,0.1,0.8,0.1,0,0,-1,-1,0.117143
Green_YC310_Pro_5B88_261008_035620.csv,1,3,19,13,34610.6,0.0984425,4.21753e+06,0.243506,33.77,0.11,0.628333,0.0183333,0.056464,0.399207,0.00372242,0.600793,0.649378,0.308009,0.31454,0.08954,0.279619,0.301362,0.30706,2026-10-08 03:56:20,153,6.1,0.292857,0,0,62.8445,0.285556,0,0.0555556,0.722222,0.222222,0,0,-1,-1,0.125882
Green_YC310_Pro_5B88_261008_035846.csv,1,4,18,17,31932.8,0.0877311,5.12316e+06,0.424633,33.8,0.03,0.633333,0.00500033,0.0514857,0.313375,-0.00497827,0.686625,0.64448,0.276492,0.309641,0.092532,0.280563,0.301362,0.303986,2026-10-08 03:58:46,146,6,0.285714,0,0,62.4277,0.280346,0,0,1,0,0,0,-1,-1,0.117895
Green_YC310_Pro_5B88_261008_040117.csv,1,5,18,17,34055.8,0.0962231,5.37909e+06,0.475818,33.84,0.04,0.64,0.006667,0.0533622,0.345727,0.00187646,0.654273,0.646021,0.270669,0.303818,0.0903279,0.283131,0.301626,0.285714,2026-10-08 04:01:17,151,6,0.285714,0,0,61.086,0.263575,0,0,0.947368,0.0526316,0,0,-1,-1,0.123158
Green_YC310_Pro_5B88_261008_040347.csv,1,6,19,18,30283.6,0.0811343,5.3787e+06,0.47574,33.87,0.03,0.645,0.005,0.0561958,0.394583,0.00283362,0.605417,0.631382,0.265833,0.298982,0.0914287,0.284475,0.285682,0.269809,2026-10-08 04:03:47,150,6,0.285714,0,0,61.7551,0.271939,0,0,0.85,0.15,0,0,-1,-1,0.119
Green_YC310_Pro_5B88_261008_040617.csv,1,7,18,15,36805.7,0.107223,5.30689e+06,0.461378,33.88,0.01,0.646667,0.00166667,0.0557507,0.386908,-0.000445129,0.613092,0.616742,0.269503,0.302652,0.0974269,0.283734,0.269835,0.268272,2026-10-08 04:06:17,150,6,0.285714,0,0,60.4703,0.255879,0,0,0.888889,0.111111,0,0,-1,-1,0.122105
Green_YC310_Pro_5B88_261008_040847.csv,1,8,19,17,33531.8,0.0941273,5.27455e+06,0.454911,33.89,0.01,0.648333,0.00166633,0.0548821,0.371933,-0.000868615,0.628067,0.609245,0.278487,0.311636,0.104834,0.282695,0.261215,0.259136,2026-10-08 04:08:47,150,6,0.285714,0,0,63.5452,0.294315,0,0,0.842105,0.157895,0,0,-1,-1,0.114737
Green_YC310_Pro_5B88_261008_041116.csv,1,9,19,17,36386.2,0.105545,5.28493e+06,0.456986,33.88,-0.01,0.646667,-0.00166633,0.0575003,0.417075,0.00261825,0.582925,0.608041,0.279131,0.31228,0.113151,0.280413,0.259083,0.25,2026-10-08 04:11:16,149,6,0.285714,0,0,61.5551,0.269439,0,0,0.789474,0.210526,0,0,-1,-1,0.122105
Green_YC310_Pro_5B88_261008_041348.csv,1,10,18,17,43043.7,0.132175,5.48374e+06,0.496748,33.85,-0.03,0.641667,-0.00500033,0.0552738,0.378685,-0.00222655,0.621315,0.613132,0.273639,0.306788,0.110688,0.279357,0.263537,0.242047,2026-10-08 04:13:48,152,5.7,0.264286,0,0,61.6438,0.270547,0,0,0.894737,0.105263,0,0,-1,-1,0.122105
Green_YC310_Pro_5B88_261008_041617.csv,1,11,19,18,36116,0.104464,5.49879e+06,0.499758,33.82,-0.03,0.636667,-0.00500033,0.0544709,0.364843,-0.000802902,0.635157,0.637384,0.269968,0.303117,0.108224,0.278301,0.287409,0.234094,2026-10-08 04:16:17,149,5.7,0.264286,0,0,62.2271,0.277839,0,0,0.9,0.1,0,0,-1,-1,0.121
Green_YC310_Pro_5B88_261008_041847.csv,1,12,18,11,31068.3,0.0842731,5.53242e+06,0.506485,33.78,-0.04,0.63,-0.006667,0.0532806,0.344321,-0.00119029,0.655679,0.630653,0.268022,0.30117,0.103275,0.277244,0.280583,0.233326,2026-10-08 04:18:47,150,5.7,0.264286,0,0,60.6742,0.258427,0,0,0.941176,0.0588235,0,0,-1,-1,0.115789
Green_YC310_Pro_5B88_261008_042117.csv,1,13,18,17,35207.7,0.100831,5.46618e+06,0.493235,33.72,-0.06,0.62,-0.01,0.056574,0.401103,0.0032934,0.598897,0.617756,0.267798,0.300947,0.0983267,0.275136,0.267963,0.232557,2026-10-08 04:21:17,150,5.7,0.264286,0,0,61.5735,0.269669,0,0,0.789474,0.210526,0,0,-1,-1,0.124211
Green_YC310_Pro_5B88_261008_042347.csv,1,14,19,18,37468.9,0.109876,5.42992e+06,0.485984,33.67,-0.05,0.611667,-0.00833333,0.055492,0.382449,-0.00108198,0.617551,0.601302,0.27361,0.306759,0.1101,0.270022,0.252053,0.230537,2026-10-08 04:23:47,150,5.7,0.264286,0,0,62.0239,0.275299,0,0,0.85,0.15,0,0,-1,-1,0.119
Green_YC310_Pro_5B88_261008_042617.csv,1,15,18,16,39898.3,0.119593,5.42416e+06,0.484832,33.66,-0.01,0.61,-0.001667,0.0581798,0.42879,0.00268781,0.57121,0.610004,0.29962,0.315461,0.101952,0.271217,0.261293,0.223421,2026-10-08 04:26:17,150,5.7,0.264286,0,0,62.069,0.275863,0,0,0.777778,0.222222,0,0,-1,-1,0.121053
Green_YC310_Pro_5B88_261008_042848.csv,1,16,18,16,34146.7,0.0965869,5.67019e+06,0.534038,33.63,-0.03,0.605,-0.005,0.0536958,0.35148,-0.00448396,0.64852,0.641253,0.280009,0.295851,0.0938046,0.271361,0.293195,0.224654,2026-10-08 04:28:48,151,5.9,0.278571,0,0,62.4277,0.280346,0,0,0.894737,0.105263,0,0,-1,-1,0.12
Green_YC310_Pro_5B88_261008_043117.csv,1,17,21,9,27004,0.0680161,5.73496e+06,0.546992,33.6,-0.03,0.6,-0.005,0.0500549,0.288705,-0.00364089,0.711295,0.66519,0.301659,0.317501,0.0882421,0.270959,0.317888,0.24843,2026-10-08 04:31:17,149,5.9,0.278571,0,0,69.3833,0.367291,0,0.047619,0.857143,0.0952381,0,0,-1,-1,0.116
Green_YC310_Pro_5B88_261008_043348.csv,1,18,19,13,30638.6,0.0825546,5.58803e+06,0.517605,33.58,-0.02,0.596667,-0.00333333,0.0540147,0.356978,0.00395982,0.643022,0.671505,0.307638,0.32348,0.0826796,0.271083,0.324988,0.258823,2026-10-08 04:33:48,151,5.9,0.278571,0,0,62.9834,0.287293,0,0,0.9,0.1,0,0,-1,-1,0.121
Green_YC310_Pro_5B88_261008_043618.csv,1,19,20,18,34367.1,0.0974682,5.71314e+06,0.542628,33.58,0,0.596667,-3.33333e-07,0.0513664,0.311317,-0.0026483,0.688683,0.635739,0.313618,0.329459,0.117385,0.263755,0.289912,0.276887,2026-10-08 04:36:18,150,5.9,0.278571,0,0,65.1466,0.314333,0,0.15,0.8,0.05,0,0,-1,-1,0.112381
Green_YC310_Pro_5B88_261008_043847.csv,1,20,19,17,35298,0.101192,5.74169e+06,0.548337,33.56,-0.02,0.593333,-0.00333367,0.0579062,0.424073,0.00653983,0.575927,0.575513,0.313616,0.329458,0.121804,0.26177,0.230413,0.279067,2026-10-08 04:38:47,149,5.9,0.278571,0,0,62.9139,0.286424,0,0,0.789474,0.210526,0,0,-1,-1,0.124211
Green_YC310_Pro_5B88_261008_044118.csv,1,21,20,6,51688.2,0.166753,5.70995e+06,0.541989,33.55,-0.01,0.591667,-0.00166633,0.0644941,0.537657,0.00658792,0.462343,0.590297,0.318682,0.334524,0.125967,0.260366,0.245897,0.236887,2026-10-08 04:41:18,151,5.9,0.278571,0,0,67.2646,0.340808,0,0.0555556,0.5,0.277778,0.166667,0,-1,-1,0.128
Green_YC310_Pro_5B88_261008_044347.csv,1,22,20,19,32336,0.0893439,5.62673e+06,0.525345,33.5,-0.05,0.583333,-0.00833367,0.048794,0.266966,-0.0157001,0.733034,0.63275,0.328816,0.344657,0.120141,0.258969,0.289267,0.250451,2026-10-08 04:43:47,149,6.2,0.3,0,0,65.8617,0.323271,0,0.0952381,0.904762,0,0,0,-1,-1,0.114286
Green_YC310_Pro_5B88_261008_044618.csv,1,23,20,19,33767.8,0.0950712,5.8109e+06,0.56218,33.47,-0.03,0.578333,-0.00499967,0.0492588,0.27498,0.000464847,0.72502,0.702873,0.314207,0.330048,0.104325,0.260732,0.360376,0.259254,2026-10-08 04:46:18,151,6.2,0.3,0,0,65.7895,0.322369,0,0,1,0,0,0,-1,-1,0.115238
Green_YC310_Pro_5B88_261008_044848.csv,1,24,19,18,39826.6,0.119306,5.78804e+06,0.557608,33.43,-0.04,0.571667,-0.00666633,0.0535773,0.349435,0.00431845,0.650565,0.656982,0.31765,0.333492,0.096679,0.260244,0.315593,0.257634,2026-10-08 04:48:48,150,6.2,0.3,0,0,63.7584,0.29698,0,0,0.9,0.1,0,0,-1,-1,0.112
Green_YC310_Pro_5B88_261008_045117.csv,1,25,20,16,30379.4,0.0815174,5.82299e+06,0.564598,33.4,-0.03,0.566667,-0.00500033,0.0567791,0.404639,0.00320177,0.595361,0.673716,0.321094,0.336935,0.089033,0.260283,0.333482,0.257556,2026-10-08 04:51:17,149,6.2,0.3,0,0,63.8978,0.298722,0,0,0.8,0.2,0,0,-1,-1,0.125
Green_YC310_Pro_5B88_261008_045347.csv,1,26,21,15,24690,0.05876,5.92933e+06,0.585866,33.38,-0.02,0.563333,-0.00333367,0.0467193,0.231195,-0.0100598,0.768805,0.69489,0.367579,0.358109,0.0874713,0.259561,0.355793,0.296803,2026-10-08 04:53:47,150,6.2,0.3,0,0,72.0824,0.40103,0,0.181818,0.818182,0,0,0,-1,-1,0.108
Green_YC310_Pro_5B88_261008_045616.csv,1,27,22,11,33707.2,0.0948287,5.92447e+06,0.584893,33.37,-0.01,0.561667,-0.00166633,0.0502908,0.292772,0.00357148,0.707228,0.720504,0.348391,0.338921,0.0859095,0.259366,0.382467,0.259046,2026-10-08 04:56:16,149,6.2,0.3,0,0,74.9149,0.436436,0,0.130435,0.782609,0.0869565,0,0,-1,-1,0.115556
Green_YC310_Pro_5B88_261008_045847.csv,1,28,19,15,38264.8,0.113059,5.84073e+06,0.568145,33.34,-0.03,0.556667,-0.00500033,0.0523222,0.327797,0.00203144,0.672203,0.697783,0.329203,0.319733,0.101512,0.254494,0.360858,0.26169,2026-10-08 04:58:47,151,6.2,0.3,0,0,62.5686,0.282108,0,0.0526316,0.894737,0.0526316,0,0,-1,-1,0.116
Green_YC310_Pro_5B88_261008_050118.csv,1,29,17,13,36392.2,0.105569,5.88091e+06,0.576182,33.31,-0.03,0.551667,-0.00500033,0.0506728,0.299359,-0.00164935,0.700641,0.674397,0.320258,0.310788,0.152941,0.242058,0.338632,0.29307,2026-10-08 05:01:18,151,6.2,0.3,0,0,57.7576,0.22197,0,0,1,0,0,0,-1,-1,0.114444
Green_YC310_Pro_5B88_261008_050347.csv,1,30,20,3,81892.1,0.287568,5.76581e+06,0.553162,33.25,-0.06,0.541667,-0.0100003,0.0551119,0.375896,0.00443915,0.624104,0.651038,0.311312,0.301843,0.181774,0.232817,0.316653,0.2875,2026-10-08 05:03:47,149,6.2,0.3,0,0,67.1141,0.338926,0,0.25,0.5625,0.125,0.0625,0,-1,-1,0.104
Green_YC310_Pro_5B88_261008_050617.csv,1,31,22,14,31737.3,0.0869493,4.94678e+06,0.389356,33.21,-0.04,0.535,-0.006667,0.0533024,0.344697,-0.00180947,0.655303,0.638615,0.337799,0.328329,0.152184,0.236963,0.305684,0.267104,2026-10-08 05:06:17,150,6.2,0.3,0,0,72.0524,0.400655,0,0.0869565,0.782609,0.130435,0,0,-1,-1,0.12381
Green_YC310_Pro_5B88_261008_050847.csv,1,32,20,15,30508.4,0.0820334,4.9564e+06,0.391279,33.2,-0.01,0.533333,-0.00166667,0.0553645,0.38025,0.00206208,0.61975,0.655685,0.364286,0.3454,0.0778855,0.252127,0.324095,0.273663,2026-10-08 05:08:47,150,6.2,0.3,0,0,68.3371,0.354214,0,0.047619,0.809524,0.142857,0,0,-1,-1,0.124762
Green_YC310_Pro_5B88_261008_051117.csv,1,33,20,18,26168.5,0.0646739,4.97671e+06,0.395342,33.18,-0.02,0.53,-0.003333,0.0490895,0.272061,-0.00627499,0.727939,0.669972,0.33789,0.319004,0.0775543,0.251146,0.339681,0.269426,2026-10-08 05:11:17,150,6.2,0.3,0,0,67.0391,0.337989,0,0.2,0.8,0,0,0,-1,-1,0.114286
Green_YC310_Pro_5B88_261008_051348.csv,1,34,20,15,32525.9,0.0901036,4.87988e+06,0.375976,33.16,-0.02,0.526667,-0.00333333,0.0508927,0.30315,0.00180322,0.69685,0.662227,0.327242,0.311259,0.0804141,0.249491,0.333199,0.243285,2026-10-08 05:13:48,151,6.2,0.3,0,0,65.7174,0.321467,0,0.047619,0.952381,0,0,0,-1,-1,0.118095
Green_YC310_Pro_5B88_261008_051618.csv,1,35,20,14,29193.8,0.0767752,4.7856e+06,0.35712,33.12,-0.04,0.52,-0.006667,0.0567121,0.403485,0.00581941,0.596515,0.627587,0.306727,0.290743,0.0812554,0.247211,0.299911,0.243184,2026-10-08 05:16:18,150,5.9,0.278571,0,0,65.7895,0.322369,0,0,0.8,0.2,0,0,-1,-1,0.122222
Green_YC310_Pro_5B88_261008_051849.csv,1,36,19,14,30341.9,0.0813676,4.92821e+06,0.385642,33.05,-0.07,0.508333,-0.0116667,0.0551168,0.37598,-0.00159526,0.62402,0.583566,0.276343,0.26036,0.0758133,0.244682,0.257499,0.26733,2026-10-08 05:18:49,151,5.9,0.278571,0,0,62.7753,0.284691,0,0.0526316,0.789474,0.157895,0,0,-1,-1,0.12
Green_YC310_Pro_5B88_261008_052117.csv,1,37,17,15,25935.7,0.0637428,4.98834e+06,0.397667,32.99,-0.06,0.498333,-0.00999967,0.0617868,0.49098,0.00667003,0.50902,0.530163,0.237027,0.221044,0.0699749,0.242762,0.205873,0.252176,2026-10-08 05:21:17,148,5.9,0.278571,0,0,57.7576,0.22197,0,0,0.666667,0.333333,0,0,-1,-1,0.130588
Green_YC310_Pro_5B88_261008_052348.csv,1,38,17,13,27761.6,0.0710464,5.04487e+06,0.408974,32.9,-0.09,0.483333,-0.0149997,0.0660043,0.563694,0.00421746,0.436306,0.529788,0.239078,0.223095,0.0641535,0.239262,0.208131,0.181378,2026-10-08 05:23:48,151,5.9,0.278571,0,0,56.3536,0.20442,0,0,0.5625,0.4375,0,0,-1,-1,0.13625
Green_YC310_Pro_5B88_261008_052618.csv,1,39,20,14,22694.6,0.0507784,5.63738e+06,0.527476,32.86,-0.04,0.476667,-0.00666633,0.0551821,0.377105,-0.0108222,0.622895,0.54521,0.241129,0.225146,0.0596671,0.238107,0.225622,0.172355,2026-10-08 05:26:18,150,5.9,0.278571,0,0,68.8073,0.360091,0,0.047619,0.809524,0.142857,0,0,-1,-1,0.125714
Green_YC310_Pro_5B88_261008_052847.csv,1,40,19,14,23058.3,0.052233,5.61418e+06,0.522836,32.8,-0.06,0.466667,-0.0100003,0.0575419,0.417791,0.00235977,0.582209,0.576428,0.259132,0.243149,0.0571764,0.23548,0.259019,0.170408,2026-10-08 05:28:47,149,5.9,0.278571,0,0,62.2271,0.277839,0,0,0.777778,0.222222,0,0,-1,-1,0.1325
Green_YC310_Pro_5B88_261008_053117.csv,1,41,18,16,25893.6,0.0635744,5.43702e+06,0.487404,32.79,-0.01,0.465,-0.001667,0.0605723,0.470039,0.00303036,0.529961,0.580387,0.270948,0.247108,0.0607633,0.234197,0.264955,0.171089,2026-10-08 05:31:17,150,5.6,0.257143,0,0,60.6742,0.258427,0,0,0.578947,0.421053,0,0,-1,-1,0.142105
Green_YC310_Pro_5B88_261008_053347.csv,1,42,18,14,25384.7,0.061539,5.26295e+06,0.452589,32.77,-0.02,0.461667,-0.00333333,0.0544932,0.365227,-0.00607914,0.634773,0.588809,0.276578,0.252738,0.0698367,0.23123,0.275233,0.174625,2026-10-08 05:33:47,150,5.6,0.257143,0,0,62.7907,0.284884,0,0,0.842105,0.157895,0,0,-1,-1,0.123158
Green_YC310_Pro_5B88_261008_053617.csv,1,43,19,4,33956.4,0.0958254,5.06732e+06,0.413464,32.74,-0.03,0.456667,-0.00500033,0.0590778,0.444272,0.00458455,0.555728,0.595251,0.28591,0.25918,0.0843966,0.226579,0.283488,0.206981,2026-10-08 05:36:17,150,5.6,0.257143,0,0,62.9139,0.286424,0,0.25,0.25,0.416667,0.0833333,0,-1,-1,0.096
Green_YC310_Pro_5B88_261008_053849.csv,1,44,17,2,30175,0.0807002,5.16933e+06,0.433866,32.59,-0.15,0.431667,-0.0250003,0.0658914,0.561748,0.00681359,0.438252,0.595251,0.286424,0.259693,0.0958254,0.216283,0.285982,0.200118,2026-10-08 05:38:49,152,5.6,0.257143,0,0,56.6038,0.207547,0,0.0666667,0.466667,0.266667,0.2,0,-1,-1,0.14
Green_YC310_Pro_5B88_261008_054127.csv,1,45,5,11,82513.3,0.290053,5.43135e+06,0.48627,32.52,-0.07,0.42,-0.011667,0.0757823,0.732281,0.00989088,0.267719,0.595251,0.286424,0.259693,0.0958254,0.212605,0.288595,0.196241,2026-10-08 05:41:27,158,5.6,0.257143,0,0,60.9756,0.262195,0,0,0,1,0,0,-1,-1,0.16
Green_YC310_Pro_5B88_261008_054352.csv,1,46,21,8,24121.7,0.0564868,5.68662e+06,0.537323,32.48,-0.04,0.413333,-0.00666667,0.0545167,0.365632,-0.0212656,0.634368,0.583166,0.292716,0.265985,0.0803156,0.213778,0.279049,0.219221,2026-10-08 05:43:52,145,5.6,0.257143,0,0,68.7773,0.359716,0,0.142857,0.666667,0.142857,0.047619,0,-1,-1,0.1375
Green_YC310_Pro_5B88_261008_054617.csv,1,47,21,10,22324,0.049296,5.65114e+06,0.530228,32.49,0.01,0.415,0.001667,0.0618814,0.49261,0.00736465,0.50739,0.55405,0.3053,0.278569,0.121007,0.205711,0.252105,0.205285,2026-10-08 05:46:17,145,5.2,0.228571,0,0,69.1548,0.364435,0,0.0952381,0.47619,0.238095,0.190476,0,-1,-1,0.14
Green_YC310_Pro_5B88_261008_054847.csv,1,48,20,3,33999.8,0.0959993,5.67089e+06,0.534178,32.56,0.07,0.426667,0.0116667,0.0606468,0.471324,-0.00123462,0.528676,0.519987,0.294731,0.268001,0.161698,0.200797,0.219533,0.204895,2026-10-08 05:48:47,150,5.2,0.228571,0,0,65.9341,0.324176,0,0.117647,0.470588,0.352941,0.0588235,0,-1,-1,0.13
Green_YC310_Pro_5B88_261008_055116.csv,1,49,16,2,78525,0.2741,5.57784e+06,0.515569,32.59,0.03,0.431667,0.00499967,0.0604201,0.467416,-0.000226701,0.532584,0.502711,0.288265,0.261535,0.162598,0.202183,0.203387,0.181947,2026-10-08 05:51:16,149,5.2,0.228571,0,0,60.3774,0.254718,0,0.0833333,0.666667,0.0833333,0.166667,0,-1,-1,0.16
Green_YC310_Pro_5B88_261008_055350.csv,1,50,20,5,29514.5,0.078058,4.48448e+06,0.296897,32.62,0.03,0.436667,0.00499967,0.0648873,0.544437,0.00446722,0.455563,0.502409,0.285903,0.261233,0.163498,0.20357,0.203899,0.169107,2026-10-08 05:53:50,154,5.4,0.242857,0,0,63.6943,0.296179,0,0,0.6,0.2,0.2,0,-1,-1,0.14
Green_YC310_Pro_5B88_261008_055618.csv,1,51,19,8,23223.7,0.052895,5.18222e+06,0.436444,32.67,0.05,0.445,0.008333,0.058168,0.428587,-0.00671925,0.571413,0.519081,0.282949,0.258279,0.112891,0.216884,0.220986,0.169563,2026-10-08 05:56:18,148,5.4,0.242857,0,0,65.367,0.317088,0,0,0.722222,0.277778,0,0,-1,-1,0.158667
Green_YC310_Pro_5B88_261008_055848.csv,1,52,18,7,25244,0.0609761,5.35102e+06,0.470203,32.72,0.05,0.453333,0.00833333,0.0575192,0.4174,-0.000648817,0.5826,0.550083,0.287498,0.262828,0.0622846,0.230197,0.252051,0.169449,2026-10-08 05:58:48,150,5.4,0.242857,0,0,59.6685,0.245856,0,0.0555556,0.666667,0.277778,0,0,-1,-1,0.15625
Green_YC310_Pro_5B88_261008_060119.csv,1,53,18,8,28245.7,0.0729826,5.43714e+06,0.487427,32.7,-0.02,0.45,-0.003333,0.0576238,0.419203,0.000104572,0.580797,0.581084,0.299549,0.27488,0.0887836,0.223551,0.283228,0.169324,2026-10-08 06:01:19,151,5.6,0.257143,0,0,60.8794,0.260992,0,0,0.647059,0.352941,0,0,-1,-1,0.147273
Green_YC310_Pro_5B88_261008_060351.csv,1,54,20,5,43098.1,0.132392,5.5397e+06,0.50794,32.7,0,0.45,4.44089e-16,0.0576785,0.420146,5.46812e-05,0.579854,0.503161,0.31021,0.285541,0.120394,0.216876,0.205459,0.178736,2026-10-08 06:03:51,152,5.7,0.264286,0,0,68.2594,0.353243,0,0.2,0.333333,0.466667,0,0,-1,-1,0.171429
Green_YC310_Pro_5B88_261008_060617.csv,1,55,19,3,48951.8,0.155807,5.48197e+06,0.496395,32.65,-0.05,0.441667,-0.00833333,0.0710777,0.651168,0.0133992,0.348832,0.450179,0.318493,0.293824,0.200271,0.197381,0.152911,0.165471,2026-10-08 06:06:17,146,5.7,0.264286,0,0,62.2271,0.277839,0,0,0.333333,0.533333,0.133333,0,-1,-1,0.1225
Green_YC310_Pro_5B88_261008_060847.csv,1,56,20,3,88153.6,0.312615,5.5013e+06,0.50026,32.65,0,0.441667,-3.33333e-07,0.0623944,0.501455,-0.00868334,0.498545,0.432975,0.322252,0.297582,0.218867,0.193454,0.136087,0.166053,2026-10-08 06:08:47,150,5.6,0.257143,0,0,69.2042,0.365053,0,0.166667,0.5,0.166667,0.166667,0,-1,-1,0.12
Green_YC310_Pro_5B88_261008_061116.csv,1,57,19,2,59971.5,0.199886,5.41588e+06,0.483176,32.72,0.07,0.453333,0.0116663,0.0689234,0.614024,0.00652901,0.385976,0.442261,0.323864,0.299195,0.237462,0.193206,0.145288,0.166625,2026-10-08 06:11:16,149,5.7,0.264286,0,0,64.2616,0.30327,0,0,0.470588,0.294118,0.235294,0,-1,-1,0.130769
Green_YC310_Pro_5B88_261008_061347.csv,1,58,21,2,44240.6,0.136962,5.14107e+06,0.428213,32.75,0.03,0.458333,0.00500033,0.0564122,0.398313,-0.0125112,0.601687,0.442261,0.334887,0.310217,0.187128,0.205411,0.145032,0.166669,2026-10-08 06:13:47,151,5.9,0.278571,0,0,72.7483,0.409354,0,0.153846,0.615385,0.153846,0.0769231,0,-1,-1,0.126
Green_YC310_Pro_5B88_261008_061618.csv,1,59,24,2,65844.5,0.223378,4.7611e+06,0.35222,32.76,0.01,0.46,0.001667,0.0443624,0.190558,-0.0120498,0.809442,0.453188,0.303754,0.279084,0.153804,0.212974,0.155674,0.166703,2026-10-08 06:16:18,151,6.2,0.3,0,0,77.0878,0.463597,0.2,0.0666667,0.666667,0.0666667,0,0,-1,-1,0.11
Green_YC310_Pro_5B88_261008_061848.csv,1,60,20,16,25410.2,0.061641,4.74508e+06,0.349016,32.67,-0.09,0.445,-0.015,0.0621055,0.496473,0.0177431,0.503527,0.475044,0.301636,0.276967,0.113838,0.216684,0.177817,0.164718,2026-10-08 06:18:48,150,6.2,0.3,0,0,64.3777,0.304721,0,0,0.619048,0.380952,0,0,-1,-1,0.134286
Green_YC310_Pro_5B88_261008_062121.csv,1,61,23,4,41517.2,0.126069,4.72027e+06,0.344055,32.57,-0.1,0.428333,-0.0166667,0.0585914,0.435887,-0.00351405,0.564113,0.520014,0.299518,0.274849,0.0954248,0.215317,0.223639,0.162723,2026-10-08 06:21:21,153,5.9,0.278571,0,0,76.9231,0.461539,0,0.1875,0.5625,0.125,0.125,0,-1,-1,0.123636
Green_YC310_Pro_5B88_261008_062347.csv,1,62,19,9,26980.1,0.0679202,4.60617e+06,0.321235,32.6,0.03,0.433333,0.00500033,0.0610987,0.479116,0.00250731,0.520884,0.533906,0.295053,0.270383,0.181212,0.198778,0.2381,0.161904,2026-10-08 06:23:47,146,5.8,0.271429,0,0,63.5452,0.294315,0,0,0.555556,0.444444,0,0,-1,-1,0.137647
Green_YC310_Pro_5B88_261008_062618.csv,1,63,18,3,125734,0.462937,4.71649e+06,0.343298,32.59,-0.01,0.431667,-0.00166633,0.060585,0.470259,-0.000513703,0.529741,0.501963,0.30716,0.28249,0.266479,0.180247,0.206718,0.161075,2026-10-08 06:26:18,151,5.8,0.271429,0,0,63.306,0.291325,0,0.0769231,0.384615,0.461538,0.0769231,0,-1,-1,0.126667
Green_YC310_Pro_5B88_261008_062849.csv,1,64,21,8,37252,0.109008,4.6268e+06,0.325361,32.65,0.06,0.441667,0.00999967,0.0661064,0.565455,0.00552137,0.434545,0.455265,0.307447,0.282777,0.268579,0.182957,0.160152,0.161251,2026-10-08 06:28:49,151,5.9,0.278571,0,0,66.8081,0.335101,0,0.0555556,0.333333,0.444444,0.166667,0,-1,-1,0.1775
Green_YC310_Pro_5B88_261008_063117.csv,1,65,18,10,28555.3,0.0742213,4.45386e+06,0.290773,32.72,0.07,0.453333,0.0116663,0.0692242,0.619211,0.00311784,0.380789,0.481533,0.295914,0.271244,0.182355,0.204843,0.186116,0.161418,2026-10-08 06:31:17,148,6.1,0.292857,0,0,62.5724,0.282155,0,0,0.35,0.6,0.05,0,-1,-1,0.1425
Green_YC310_Pro_5B88_261008_063352.csv,1,66,18,11,34187,0.0967482,4.52849e+06,0.305699,32.68,-0.04,0.446667,-0.00666633,0.069045,0.616121,-0.000179159,0.383879,0.5078,0.272649,0.247979,0.0961312,0.220948,0.212356,0.161576,2026-10-08 06:33:52,155,6.7,0.335714,0,0,60.5381,0.256726,0,0,0.277778,0.611111,0.111111,0,-1,-1,0.145333
Green_YC310_Pro_5B88_261008_063618.csv,1,67,18,12,39356,0.117424,5.23978e+06,0.447957,32.68,0,0.446667,-3.33333e-07,0.0544909,0.365188,-0.0145541,0.634812,0.513416,0.251854,0.227185,0.111168,0.217773,0.217945,0.161727,2026-10-08 06:36:18,146,6.8,0.342857,0,0,61.2245,0.265306,0,0,0.9375,0.0625,0,0,-1,-1,0.12875
Green_YC310_Pro_5B88_261008_063850.csv,1,68,17,15,39832.8,0.119331,5.3834e+06,0.47668,32.77,0.09,0.461667,0.0149997,0.0609499,0.47655,0.00645901,0.52345,0.519031,0.233531,0.208861,0.115795,0.221525,0.222998,0.161243,2026-10-08 06:38:50,152,7,0.357143,0,0,56.9196,0.211495,0,0,0.722222,0.277778,0,0,-1,-1,0.137778
Green_YC310_Pro_5B88_261008_064120.csv,1,69,16,14,39221.8,0.116887,5.41664e+06,0.483328,32.84,0.07,0.473333,0.0116663,0.0681779,0.60117,0.00722797,0.39883,0.439625,0.21317,0.188501,0.118322,0.22467,0.142677,0.160752,2026-10-08 06:41:20,150,7.2,0.371429,0,0,56.1404,0.201755,0,0,0.235294,0.764706,0,0,-1,-1,0.150667
Green_YC310_Pro_5B88_261008_064348.csv,1,70,16,14,40046.1,0.120185,5.37739e+06,0.475478,32.86,0.02,0.476667,0.00333367,0.0683074,0.603404,0.000129511,0.396596,0.453536,0.202113,0.177444,0.117562,0.225882,0.155661,0.158322,2026-10-08 06:43:48,148,7.2,0.371429,0,0,56.338,0.204225,0,0,0.470588,0.529412,0,0,-1,-1,0.142353
Green_YC310_Pro_5B88_261008_064618.csv,1,71,17,16,38247.7,0.112991,5.51396e+06,0.502792,32.88,0.02,0.48,0.003333,0.0610657,0.478547,-0.00724168,0.521453,0.467447,0.201675,0.177006,0.115702,0.227325,0.168636,0.155884,2026-10-08 06:46:18,150,7.2,0.371429,0,0,55.8598,0.198247,0,0,0.5,0.5,0,0,-1,-1,0.144706
Green_YC310_Pro_5B88_261008_064847.csv,1,72,17,16,39160.5,0.116642,5.50283e+06,0.500566,32.89,0.01,0.481667,0.00166667,0.0600887,0.461702,-0.00097697,0.538298,0.511636,0.202377,0.177708,0.112397,0.228549,0.211941,0.155763,2026-10-08 06:48:47,149,7.1,0.364286,0,0,56.4784,0.20598,0,0,0.833333,0.166667,0,0,-1,-1,0.135556
Green_YC310_Pro_5B88_261008_065120.csv,1,73,16,15,35828.5,0.103314,5.53115e+06,0.50623,32.89,0,0.481667,-3.33333e-07,0.0606186,0.470838,0.000529898,0.529162,0.53472,0.203648,0.178978,0.111228,0.228796,0.234247,0.153535,2026-10-08 06:51:20,153,7.1,0.364286,0,0,55.9441,0.199301,0,0,0.764706,0.235294,0,0,-1,-1,0.136471
Green_YC310_Pro_5B88_261008_065348.csv,1,74,17,14,37595.4,0.110381,5.51917e+06,0.503835,32.88,-0.01,0.48,-0.001667,0.0601961,0.463553,-0.000422547,0.536447,0.536701,0.205662,0.180959,0.113729,0.227742,0.235602,0.145796,2026-10-08 06:53:48,148,7.1,0.364286,0,0,55.9824,0.19978,0,0,0.777778,0.222222,0,0,-1,-1,0.136667
Green_YC310_Pro_5B88_261008_065617.csv,1,75,17,16,41035.7,0.124143,5.49238e+06,0.498476,32.89,0.01,0.481667,0.00166667,0.0597441,0.455761,-0.000451985,0.544239,0.539784,0.222284,0.184042,0.104694,0.230175,0.238075,0.139302,2026-10-08 06:56:17,149,6.9,0.35,0,0,57.4324,0.217905,0,0,0.777778,0.222222,0,0,-1,-1,0.134118
Green_YC310_Pro_5B88_261008_065847.csv,1,76,18,16,37057.4,0.10823,5.51532e+06,0.503064,32.9,0.01,0.483333,0.00166633,0.0600822,0.461589,0.000338051,0.538411,0.553352,0.236924,0.19761,0.0956591,0.232609,0.251045,0.138726,2026-10-08 06:58:47,150,6.8,0.342857,0,0,59.9334,0.249167,0,0,0.722222,0.277778,0,0,-1,-1,0.13
Green_YC310_Pro_5B88_261008_070117.csv,1,77,18,2,26793.8,0.0671753,5.77483e+06,0.554966,32.91,0.01,0.485,0.001667,0.0561563,0.393901,-0.00392593,0.606099,0.577405,0.249449,0.210134,0.0915725,0.233997,0.274512,0.136602,2026-10-08 07:01:17,150,6.8,0.342857,0,0,59.1457,0.239321,0,0,0.882353,0.117647,0,0,-1,-1,0.105
Green_YC310_Pro_5B88_261008_070350.csv,1,78,18,17,37970.9,0.111883,5.69843e+06,0.539686,32.9,-0.01,0.483333,-0.00166667,0.0555588,0.383601,-0.000597466,0.616399,0.589564,0.259857,0.220543,0.0980956,0.232094,0.286215,0.152144,2026-10-08 07:03:50,153,6.8,0.342857,0,0,59.4714,0.243393,0,0,0.842105,0.157895,0,0,-1,-1,0.124444
Green_YC310_Pro_5B88_261008_070619.csv,1,79,19,14,35360.3,0.101441,5.68784e+06,0.537568,32.9,0,0.483333,3.33333e-07,0.0579665,0.425112,0.00240769,0.574888,0.590237,0.25717,0.217856,0.122605,0.226919,0.286486,0.169238,2026-10-08 07:06:19,149,6.8,0.342857,0,0,62.4315,0.280394,0,0,0.75,0.25,0,0,-1,-1,0.126
Green_YC310_Pro_5B88_261008_070848.csv,1,80,18,12,53913.5,0.175654,5.71339e+06,0.542678,32.91,0.01,0.485,0.001667,0.0568133,0.405229,-0.00115324,0.594771,0.565881,0.254483,0.215168,0.140179,0.223733,0.261716,0.183752,2026-10-08 07:08:48,149,6.8,0.342857,0,0,60.7424,0.25928,0,0,0.777778,0.222222,0,0,-1,-1,0.132222
Green_YC310_Pro_5B88_261008_071119.csv,1,81,17,15,36992.1,0.107968,5.62473e+06,0.524945,32.91,0,0.485,-5.55112e-16,0.0614065,0.484422,0.00459316,0.515578,0.527983,0.242309,0.202995,0.130277,0.225824,0.223453,0.17696,2026-10-08 07:11:19,151,6.8,0.342857,0,0,58.2857,0.228571,0,0,0.666667,0.333333,0,0,-1,-1,0.133333
Green_YC310_Pro_5B88_261008_071349.csv,1,82,17,13,42379.5,0.129518,5.89867e+06,0.579733,32.91,0,0.485,-5.55112e-16,0.0645608,0.538806,0.00315426,0.461194,0.528347,0.236015,0.1967,0.118517,0.228307,0.223496,0.150519,2026-10-08 07:13:49,150,6.8,0.342857,0,0,59.5099,0.243874,0,0,0.555556,0.444444,0,0,-1,-1,0.135294
Green_YC310_Pro_5B88_261008_071618.csv,1,83,17,16,38415.5,0.113662,5.82183e+06,0.564366,32.91,0,0.485,-5.55112e-16,0.0587846,0.439217,-0.0057762,0.560783,0.528712,0.236923,0.197065,0.118065,0.228403,0.223578,0.138227,2026-10-08 07:16:18,149,6.8,0.342857,0,0,58.2192,0.22774,0,0,0.777778,0.222222,0,0,-1,-1,0.131765
Green_YC310_Pro_5B88_261008_071848.csv,1,84,18,15,37753.9,0.111015,5.80862e+06,0.561725,32.91,0,0.485,-5.55112e-16,0.0567287,0.40377,-0.00205594,0.59623,0.544337,0.240732,0.200874,0.109369,0.230239,0.238954,0.138255,2026-10-08 07:18:48,150,6.8,0.342857,0,0,59.867,0.248337,0,0,0.833333,0.166667,0,0,-1,-1,0.125882
Green_YC310_Pro_5B88_261008_072119.csv,1,85,18,17,35857.3,0.103429,5.75442e+06,0.550883,32.89,-0.02,0.481667,-0.00333333,0.0574547,0.416288,0.000726021,0.583712,0.559962,0.245509,0.205652,0.112164,0.228598,0.254479,0.133635,2026-10-08 07:21:19,151,6.8,0.342857,0,0,59.081,0.238513,0,0,0.833333,0.166667,0,0,-1,-1,0.128421
Green_YC310_Pro_5B88_261008_072352.csv,1,86,18,17,40923.6,0.123695,5.67742e+06,0.535485,32.89,0,0.481667,-3.33333e-07,0.0609357,0.476306,0.00348102,0.523694,0.570899,0.249678,0.209821,0.115537,0.227886,0.265328,0.1382,2026-10-08 07:23:52,153,6.8,0.342857,0,0,60.2679,0.253349,0,0,0.684211,0.315789,0,0,-1,-1,0.126316
Green_YC310_Pro_5B88_261008_072618.csv,1,87,19,16,37832.2,0.111329,5.67876e+06,0.535752,32.89,0,0.481667,-3.33333e-07,0.0548257,0.37096,-0.00611001,0.62904,0.584738,0.256167,0.216309,0.117171,0.227541,0.27909,0.171115,2026-10-08 07:26:18,146,6.8,0.342857,0,0,60.5739,0.257174,0,0,0.888889,0.111111,0,0,-1,-1,0.124211
Green_YC310_Pro_5B88_261008_072848.csv,1,88,19,17,38938.5,0.115754,5.67758e+06,0.535516,32.9,0.01,0.483333,0.00166633,0.0551882,0.37721,0.000362502,0.62279,0.601479,0.253759,0.213901,0.11649,0.22821,0.295703,0.186395,2026-10-08 07:28:48,150,6.8,0.342857,0,0,60.6383,0.257979,0,0,0.894737,0.105263,0,0,-1,-1,0.125263
Green_YC310_Pro_5B88_261008_073117.csv,1,89,18,17,40596.7,0.122387,5.67337e+06,0.534675,32.93,0.03,0.488333,0.00500033,0.0580227,0.426081,0.00283451,0.573919,0.600959,0.251351,0.21338,0.15758,0.22111,0.294889,0.182855,2026-10-08 07:31:17,149,6.8,0.342857,0,0,60.2679,0.253349,0,0,0.789474,0.210526,0,0,-1,-1,0.125263
Green_YC310_Pro_5B88_261008_073348.csv,1,90,20,22,68649.9,0.2346,5.84921e+06,0.569842,32.95,0.02,0.491667,0.00333367,0.0549163,0.372522,-0.00310641,0.627478,0.593985,0.255388,0.217418,0.150798,0.223593,0.287537,0.20123,2026-10-08 07:33:48,151,6.8,0.342857,0,0,65.7174,0.321467,0,0.142857,0.642857,0.214286,0,0,-1,-1,0.131667
Green_YC310_Pro_5B88_261008_073618.csv,1,91,18,17,40154.8,0.120619,5.93253e+06,0.586506,32.95,0,0.491667,-3.33333e-07,0.0602878,0.465134,0.0053715,0.534866,0.580558,0.250905,0.212935,0.144015,0.225025,0.273776,0.201187,2026-10-08 07:36:18,150,6.8,0.342857,0,0,58.8877,0.236096,0,0,0.684211,0.315789,0,0,-1,-1,0.131765
Green_YC310_Pro_5B88_261008_073850.csv,1,92,17,16,29206.9,0.0768274,4.80179e+06,0.360357,32.96,0.01,0.493333,0.00166633,0.0603591,0.466363,7.12767e-05,0.533637,0.591564,0.249182,0.211212,0.0861903,0.237761,0.284429,0.178671,2026-10-08 07:38:50,152,6.8,0.342857,0,0,57.4972,0.218715,0,0,0.777778,0.222222,0,0,-1,-1,0.135556
Green_YC310_Pro_5B88_261008_074117.csv,1,93,19,11,25281.2,0.0611246,4.80037e+06,0.360073,32.94,-0.02,0.49,-0.003333,0.0574801,0.416726,-0.00287901,0.583274,0.60257,0.258741,0.22077,0.0783596,0.238364,0.295244,0.171308,2026-10-08 07:41:17,147,6.8,0.342857,0,0,60.6383,0.257979,0,0,0.833333,0.166667,0,0,-1,-1,0.131111
Green_YC310_Pro_5B88_261008_074358.csv,1,94,19,11,26890.1,0.0675603,5.59713e+06,0.519427,32.91,-0.03,0.485,-0.005,0.0523628,0.328497,-0.00511725,0.671503,0.642299,0.270566,0.232595,0.0705288,0.238441,0.334985,0.195087,2026-10-08 07:43:58,161,6.8,0.342857,0,0,63.9013,0.298766,0,0,0.944444,0.0555556,0,0,-1,-1,0.134444
Green_YC310_Pro_5B88_261008_074617.csv,1,95,18,17,29983.3,0.079933,5.76818e+06,0.553635,32.87,-0.04,0.478333,-0.00666667,0.0534463,0.347177,0.00108349,0.652823,0.680214,0.291071,0.253101,0.0626022,0.238013,0.37315,0.191521,2026-10-08 07:46:17,139,6.8,0.342857,0,0,60.3352,0.25419,0,0,0.947368,0.0526316,0,0,-1,-1,0.134444
Green_YC310_Pro_5B88_261008_074849.csv,1,96,21,14,26042.5,0.0641698,5.63609e+06,0.527218,32.82,-0.05,0.47,-0.008333,0.049482,0.278828,-0.00396428,0.721172,0.716316,0.320258,0.282287,0.0546757,0.237059,0.409772,0.240437,2026-10-08 07:48:49,152,6.8,0.342857,0,0,68.1081,0.351351,0,0.0454545,0.954545,0,0,0,-1,-1,0.125455
Green_YC310_Pro_5B88_261008_075117.csv,1,97,23,16,17354.6,0.0294184,4.88612e+06,0.377224,32.77,-0.05,0.461667,-0.00833333,0.0460811,0.220191,-0.00340093,0.779809,0.721822,0.366511,0.287793,0.0484671,0.235743,0.416035,0.298685,2026-10-08 07:51:17,148,6.8,0.342857,0,0,75.9076,0.448845,0,0.166667,0.833333,0,0,0,-1,-1,0.118095
Green_YC310_Pro_5B88_261008_075349.csv,1,98,21,16,21556.2,0.0462246,4.74579e+06,0.349158,32.72,-0.05,0.453333,-0.00833367,0.0524883,0.33066,0.00640717,0.66934,0.723135,0.365505,0.286787,0.0422585,0.234426,0.418314,0.295092,2026-10-08 07:53:49,152,6.8,0.342857,0,0,68.7023,0.358779,0,0.0454545,0.863636,0.0909091,0,0,-1,-1,0.12625
Green_YC310_Pro_5B88_261008_075619.csv,1,99,20,15,23774.6,0.0550986,4.94826e+06,0.389653,32.68,-0.04,0.446667,-0.00666633,0.0464152,0.225951,-0.00607313,0.774049,0.706776,0.36054,0.281822,0.0472555,0.231269,0.403046,0.308012,2026-10-08 07:56:19,150,6.8,0.342857,0,0,66.9643,0.337054,0,0.1875,0.8125,0,0,0,-1,-1,0.108571
Green_YC310_Pro_5B88_261008_075850.csv,1,100,21,17,21102.4,0.0444095,4.93974e+06,0.387947,32.65,-0.03,0.441667,-0.00500033,0.0485583,0.262901,0.00214307,0.737099,0.676939,0.351617,0.2729,0.0514929,0.228798,0.374348,0.307554,2026-10-08 07:58:50,151,6.8,0.342857,0,0,67.9612,0.349515,0,0.136364,0.818182,0.0454545,0,0,-1,-1,0.124762
Green_YC310_Pro_5B88_261008_080117.csv,1,101,17,15,25513.5,0.0620542,4.77776e+06,0.355552,32.62,-0.03,0.436667,-0.00500033,0.0576799,0.420171,0.0091216,0.579829,0.6731,0.341668,0.269061,0.0508176,0.227364,0.371691,0.306399,2026-10-08 08:01:17,147,6.8,0.342857,0,0,57.5621,0.219526,0,0,0.764706,0.235294,0,0,-1,-1,0.127778
Green_YC310_Pro_5B88_261008_080347.csv,1,102,21,20,17938.4,0.0317537,5.07725e+06,0.41545,32.59,-0.03,0.431667,-0.00500033,0.0470832,0.237468,-0.0105967,0.762532,0.680991,0.34387,0.271262,0.0459892,0.226807,0.380803,0.315366,2026-10-08 08:03:47,150,6.8,0.342857,0,0,70.6278,0.382847,0,0.0454545,0.954545,0,0,0,-1,-1,0.119091
Green_YC310_Pro_5B88_261008_080618.csv,1,103,21,8,17481.1,0.0299243,5.06211e+06,0.412422,32.56,-0.03,0.426667,-0.00500033,0.0503366,0.293562,0.00325338,0.706438,0.700611,0.343786,0.271178,0.0492639,0.224539,0.401677,0.316723,2026-10-08 08:06:18,151,6.8,0.342857,0,0,71.5909,0.394886,0,0,1,0,0,0,-1,-1,0.124211
Green_YC310_Pro_5B88_261008_080848.csv,1,104,19,9,23120.9,0.0524836,5.36181e+06,0.472362,32.53,-0.03,0.421667,-0.00500033,0.0542659,0.361309,0.00392932,0.638691,0.659668,0.329264,0.256657,0.0525385,0.222271,0.362017,0.295461,2026-10-08 08:08:48,150,6.8,0.342857,0,0,65.2921,0.316151,0,0,0.842105,0.157895,0,0,-1,-1,0.129412
Green_YC310_Pro_5B88_261008_081120.csv,1,105,18,15,28801.9,0.0752076,5.49613e+06,0.499226,32.54,0.01,0.423333,0.00166633,0.0542073,0.360298,-5.8637e-05,0.639702,0.631077,0.275222,0.228065,0.0632135,0.220542,0.334494,0.289141,2026-10-08 08:11:20,152,6.8,0.342857,0,0,62.1404,0.276755,0,0,0.888889,0.111111,0,0,-1,-1,0.133333
Green_YC310_Pro_5B88_261008_081348.csv,1,106,17,15,30694.9,0.0827796,5.43051e+06,0.486101,32.55,0.01,0.425,0.001667,0.0561498,0.393789,0.00194246,0.606211,0.633331,0.265964,0.218807,0.08483,0.216503,0.33763,0.292064,2026-10-08 08:13:48,148,6.8,0.342857,0,0,58.6207,0.232759,0,0,0.8125,0.1875,0,0,-1,-1,0.126667
Green_YC310_Pro_5B88_261008_081618.csv,1,107,19,18,34125.7,0.0965027,5.28417e+06,0.456833,32.56,0.01,0.426667,0.00166667,0.0518003,0.318799,-0.00434947,0.681201,0.657372,0.268393,0.221237,0.081236,0.217788,0.362386,0.276853,2026-10-08 08:16:18,150,6.8,0.342857,0,0,63.1929,0.289911,0,0,0.95,0.05,0,0,-1,-1,0.124
Green_YC310_Pro_5B88_261008_081848.csv,1,108,18,15,31795.2,0.0871807,5.2548e+06,0.450959,32.57,0.01,0.428333,0.00166633,0.0529793,0.339125,0.00117896,0.660875,0.683931,0.279804,0.232647,0.077642,0.219072,0.389513,0.251867,2026-10-08 08:18:48,150,6.8,0.342857,0,0,60.8794,0.260992,0,0,0.941176,0.0588235,0,0,-1,-1,0.127368
Green_YC310_Pro_5B88_261008_082121.csv,1,109,20,17,24695.3,0.0587812,5.26244e+06,0.452487,32.56,-0.01,0.426667,-0.00166633,0.0501999,0.291205,-0.00277943,0.708795,0.709716,0.291972,0.244815,0.0694877,0.220268,0.41586,0.263842,2026-10-08 08:21:21,153,6.8,0.342857,0,0,64.5856,0.30732,0,0.15,0.8,0.05,0,0,-1,-1,0.12381
Green_YC310_Pro_5B88_261008_082347.csv,1,110,18,17,25507.4,0.0620295,5.15055e+06,0.43011,32.56,0,0.426667,-3.33333e-07,0.0473136,0.241442,-0.00288628,0.758558,0.71033,0.298524,0.245428,0.0613334,0.22199,0.416966,0.287899,2026-10-08 08:23:47,146,6.8,0.342857,0,0,63.3803,0.292254,0,0.0526316,0.947368,0,0,0,-1,-1,0.114737
Green_YC310_Pro_5B88_261008_082618.csv,1,111,19,16,25971.4,0.0638857,5.09262e+06,0.418524,32.57,0.01,0.428333,0.00166633,0.0528726,0.337286,0.005559,0.662714,0.715701,0.296,0.242903,0.0612417,0.222535,0.422711,0.30645,2026-10-08 08:26:18,151,6.8,0.342857,0,0,63.8298,0.297872,0,0.0555556,0.833333,0.111111,0,0,-1,-1,0.122105
Green_YC310_Pro_5B88_261008_082849.csv,1,112,19,17,25021.1,0.0600845,5.04289e+06,0.408578,32.56,-0.01,0.426667,-0.00166633,0.0481107,0.255185,-0.00476187,0.744815,0.725831,0.324557,0.253033,0.06115,0.222029,0.43323,0.319285,2026-10-08 08:28:49,151,6.8,0.342857,0,0,63.8298,0.297872,0,0.105263,0.894737,0,0,0,-1,-1,0.117
Green_YC310_Pro_5B88_261008_083118.csv,1,113,21,20,24603.5,0.0584142,4.97338e+06,0.394677,32.53,-0.03,0.421667,-0.00500033,0.0455511,0.211053,-0.00255963,0.788947,0.766881,0.337899,0.266375,0.0592493,0.220854,0.474803,0.354559,2026-10-08 08:31:18,149,6.8,0.342857,0,0,70.2341,0.377926,0,0.318182,0.681818,0,0,0,-1,-1,0.110476
