Sheet Name,Segment,Index,total_beat_count,Sel_Min,diff,diff_n,mean,mean_n,temp,temp_raw_diff,temp_n,temp_diff,rise_low,rise_low_n,rise_low_diff,rise_low_n_inv,rise_low_n_inv_center,HR_n_center,HR_n_center_lim,diff_n_center,diff_anker,rl_inv_corr,inv_corr,datetime,time_gap_seconds,CGM,CGM_n,SMBG,SMBG_n,HR,HR_n,r20,r40,r60,r80,r100,time_gap_state,time_gap_slot,time_gap_offset_s,rise_low_50
Green_YC310_Pro_5B88_260927_184928.csv,2,1,39,9,56775.9,0.187103,5.42493e+06,0.484987,33.83,0,0.638333,0,0.0541176,0.358753,0,0.641247,0.641247,0.550646,0.550646,0.187103,0.26217,0.338389,0.35,2026-09-27 18:50:01,0,6.3,0.307143,6.9,0.35,84.0517,0.550646,0,0.382353,0.558824,0.0294118,0.0294118,1,0,0,0.0974194
Green_YC310_Pro_5B88_260927_185146.csv,2,2,40,35,53949.9,0.1758,5.52455e+06,0.50491,33.85,0.02,0.641667,0.00333367,0.0541463,0.359247,2.87415e-05,0.640753,0.65139,0.556711,0.556711,0.180567,0.264601,0.343868,0.353048,2026-09-27 18:52:22,141,6.3,0.307143,0,0,84.2105,0.552631,0,0.292683,0.707317,0,0,1,1,0,0.101
Green_YC310_Pro_5B88_260927_185404.csv,2,3,40,21,55891.5,0.183566,5.47277e+06,0.494553,33.9,0.05,0.65,0.008333,0.0517073,0.317195,-0.00243898,0.682805,0.667336,0.572045,0.572045,0.178194,0.267729,0.35231,0.358362,2026-09-27 18:54:37,135,6.3,0.307143,0,0,85.3485,0.566856,0,0.414634,0.585366,0,0,1,2,0,0.100526
Green_YC310_Pro_5B88_260927_185624.csv,2,4,41,36,54638.1,0.178553,5.48297e+06,0.496594,34,0.1,0.666667,0.0166667,0.0528571,0.33702,0.00114984,0.66298,0.674995,0.579277,0.579277,0.175215,0.273613,0.353822,0.35399,2026-09-27 18:56:59,142,6.3,0.307143,0,0,87.7318,0.596648,0,0.357143,0.642857,0,0,1,3,0,0.097619
Green_YC310_Pro_5B88_260927_185844.csv,2,5,40,24,51716.1,0.166864,5.27494e+06,0.454989,34.08,0.08,0.68,0.013333,0.0512195,0.308785,-0.00163759,0.691215,0.674256,0.582168,0.582168,0.178897,0.27704,0.350963,0.347705,2026-09-27 18:59:19,140,6.3,0.307143,0,0,85.531,0.569138,0,0.439024,0.560976,0,0,1,4,0,0.0965854
Green_YC310_Pro_5B88_260927_190101.csv,2,6,42,25,58652.9,0.194612,5.43243e+06,0.486487,34.14,0.06,0.69,0.01,0.0565854,0.401299,0.00536587,0.598701,0.668571,0.574788,0.576484,0.181168,0.279713,0.345213,0.339281,2026-09-27 19:01:36,137,6.3,0.307143,0,0,87.5,0.59375,0,0.195122,0.780488,0.0243902,0,1,5,0,0.10439
Green_YC310_Pro_5B88_260927_190353.csv,2,7,38,35,56142.5,0.18457,5.3666e+06,0.473319,34.19,0.05,0.698333,0.00833333,0.0538462,0.354072,-0.00273925,0.645928,0.672707,0.561477,0.563173,0.182028,0.282159,0.344839,0.336461,2026-09-27 19:04:28,172,6.3,0.307143,0,0,82.4891,0.531114,0,0.307692,0.692308,0,0,1,6,30,0.100513
Green_YC310_Pro_5B88_260927_190610.csv,2,8,39,35,51725.2,0.166901,5.38135e+06,0.476269,34.23,0.04,0.705,0.006667,0.0505,0.296379,-0.0033462,0.703621,0.66919,0.55302,0.559657,0.172342,0.286306,0.340886,0.328361,2026-09-27 19:06:45,137,6.3,0.307143,0,0,82.3364,0.529205,0,0.475,0.525,0,0,1,7,30,0.0969231
Green_YC310_Pro_5B88_260927_190828.csv,2,9,40,22,51389.1,0.165556,5.35429e+06,0.470858,34.21,-0.02,0.701667,-0.00333333,0.0523077,0.327546,0.00180769,0.672454,0.658022,0.548339,0.554976,0.178123,0.284035,0.334939,0.324685,2026-09-27 19:09:03,138,5.9,0.278571,0,0,85.4701,0.568376,0.0512821,0.307692,0.615385,0.025641,0,1,8,30,0.102857
Green_YC310_Pro_5B88_260927_191046.csv,2,10,38,31,57742.9,0.190971,5.31616e+06,0.463232,34.19,-0.02,0.698333,-0.00333367,0.0557895,0.387577,0.00348177,0.612423,0.653887,0.54675,0.553388,0.183904,0.281763,0.333167,0.325185,2026-09-27 19:11:20,137,5.9,0.278571,0,0,82.1918,0.527397,0,0.210526,0.789474,0,0,1,9,30,0.102162
Green_YC310_Pro_5B88_260927_191310.csv,2,11,40,34,58796.3,0.195185,5.45676e+06,0.491352,34.21,0.02,0.701667,0.00333367,0.0512195,0.308785,-0.00456999,0.691215,0.660195,0.54673,0.553367,0.194157,0.280649,0.336032,0.329164,2026-09-27 19:13:48,148,5.9,0.278571,0,0,85.1064,0.56383,0,0.439024,0.560976,0,0,1,10,30,0.0985366
Green_YC310_Pro_5B88_260927_191524.csv,2,12,38,27,59078.7,0.196315,5.69861e+06,0.539723,34.24,0.03,0.706667,0.00499967,0.0538462,0.354072,0.00262665,0.645928,0.676982,0.549745,0.556383,0.182121,0.284767,0.344664,0.333678,2026-09-27 19:15:57,129,5.9,0.278571,0,0,82.5489,0.531861,0,0.307692,0.692308,0,0,1,11,30,0.0994872
Green_YC310_Pro_5B88_260927_191744.csv,2,13,40,39,48972.4,0.15589,4.88079e+06,0.376159,34.22,-0.02,0.703333,-0.00333367,0.0492683,0.275143,-0.00457791,0.724857,0.679893,0.553114,0.559294,0.170428,0.286185,0.34722,0.334816,2026-09-27 19:18:21,144,5.9,0.278571,0,0,85.7143,0.571429,0,0.536585,0.463415,0,0,1,12,30,0.0985366
Green_YC310_Pro_5B88_260927_192003.csv,2,14,40,38,53403.9,0.173616,4.80949e+06,0.361899,34.23,0.01,0.705,0.001667,0.055122,0.376068,0.00585365,0.623932,0.660465,0.556051,0.562231,0.164928,0.287872,0.336233,0.322142,2026-09-27 19:20:36,135,5.9,0.278571,0,0,85.2273,0.565341,0,0.243902,0.756098,0,0,1,13,30,0.100488
Green_YC310_Pro_5B88_260927_192224.csv,2,15,39,26,52266,0.169064,4.82575e+06,0.365151,34.2,-0.03,0.7,-0.005,0.0525,0.330862,-0.002622,0.669138,0.647642,0.546101,0.552282,0.165277,0.286222,0.329287,0.316846,2026-09-27 19:22:58,142,5.9,0.278571,0,0,82.5106,0.531382,0,0.375,0.625,0,0,1,14,30,0.0975
Green_YC310_Pro_5B88_260927_192511.csv,2,16,39,31,49234.9,0.156939,4.71577e+06,0.343154,34.2,0,0.7,5.55112e-16,0.053,0.339483,0.0005,0.660517,0.649855,0.527846,0.534027,0.169149,0.285404,0.329123,0.3175,2026-09-27 19:25:47,169,5.9,0.278571,0,0,82.5106,0.531382,0,0.35,0.65,0,0,1,15,60,0.103
Green_YC310_Pro_5B88_260927_192730.csv,2,17,38,35,56307.7,0.185231,4.78396e+06,0.356792,34.21,0.01,0.701667,0.00166667,0.0547368,0.369428,0.00173684,0.630572,0.645066,0.533573,0.539754,0.160053,0.28785,0.326548,0.312479,2026-09-27 19:28:03,136,5.9,0.278571,0,0,81.6619,0.520774,0,0.263158,0.736842,0,0,1,16,60,0.102632
Green_YC310_Pro_5B88_260927_192950.csv,2,18,38,3,38203.3,0.112813,4.44082e+06,0.288164,34.25,0.04,0.708333,0.00666633,0.0533333,0.34523,-0.00140347,0.65477,0.627302,0.539301,0.545481,0.143421,0.293465,0.315707,0.296024,2026-09-27 19:30:28,145,5.9,0.278571,0,0,82.1918,0.527397,0,0.407407,0.518519,0.0740741,0,1,17,60,0.0844444
Green_YC310_Pro_5B88_260927_193210.csv,2,19,40,6,42024.3,0.128097,4.73665e+06,0.34733,34.18,-0.07,0.696667,-0.0116663,0.0574194,0.415679,0.00408605,0.584321,0.596565,0.515045,0.521226,0.132218,0.292152,0.298963,0.280592,2026-09-27 19:32:45,137,5.9,0.278571,0,0,84.6262,0.557827,0.0322581,0.258065,0.580645,0.0645161,0.0645161,1,18,60,0.135789
Green_YC310_Pro_5B88_260927_193427.csv,2,20,38,10,48935.8,0.155743,5.3336e+06,0.46672,34.02,-0.16,0.67,-0.026667,0.059375,0.449397,0.0019556,0.550603,0.549055,0.49079,0.49697,0.16512,0.276796,0.275826,0.272811,2026-09-27 19:35:01,136,5.9,0.278571,0,0,80.5654,0.507068,0,0.1875,0.6875,0.09375,0.03125,1,19,60,0.1144
Green_YC310_Pro_5B88_260927_193646.csv,2,21,34,1,62880.2,0.211521,4.81393e+06,0.362786,33.9,-0.12,0.65,-0.02,0.0616,0.487759,0.002225,0.512241,0.557215,0.426255,0.432436,0.157987,0.271996,0.279434,0.281219,2026-09-27 19:37:18,137,5.9,0.278571,0,0,72.5979,0.407474,0,0.32,0.44,0.08,0.16,1,20,60,0.096
Green_YC310_Pro_5B88_260927_193905.csv,2,22,37,7,34330.1,0.0973205,4.51189e+06,0.302378,33.62,-0.28,0.603333,-0.0466667,0.0561111,0.393123,-0.00548889,0.606877,0.565375,0.45608,0.440595,0.153137,0.258307,0.29563,0.311104,2026-09-27 19:39:39,141,6.1,0.292857,0,0,83.4586,0.543233,0.0277778,0.361111,0.472222,0.0555556,0.0833333,1,21,60,0.0866667
Green_YC310_Pro_5B88_260927_194216.csv,2,23,31,1,61596.5,0.206386,4.78935e+06,0.35787,33.5,-0.12,0.583333,-0.0199997,0.0611111,0.47933,0.00500001,0.52067,0.584989,0.492332,0.46021,0.15135,0.252378,0.313401,0.334804,2026-09-27 19:42:49,190,6.1,0.292857,0,0,65.678,0.320975,0,0.333333,0.388889,0.166667,0.111111,2,22,109.7,0.0945455
Green_YC310_Pro_5B88_260927_194433.csv,2,24,42,28,33826.7,0.0953069,5.44279e+06,0.488558,33.48,-0.02,0.58,-0.003333,0.0547619,0.36986,-0.0063492,0.63014,0.602313,0.51378,0.477534,0.142448,0.253207,0.325418,0.345992,2026-09-27 19:45:11,142,6.1,0.292857,0,0,88.9831,0.612289,0,0.261905,0.738095,0,0,2,23,109.7,0.104
Green_YC310_Pro_5B88_260927_194654.csv,2,25,41,22,44371.7,0.137487,5.56424e+06,0.512848,33.46,-0.02,0.576667,-0.00333333,0.0552632,0.378503,0.000501258,0.621497,0.617348,0.521184,0.484939,0.125652,0.255703,0.335073,0.353152,2026-09-27 19:47:28,137,6.1,0.292857,0,0,86.2553,0.578191,0,0.263158,0.710526,0.0263158,0,2,24,109.7,0.103529
Green_YC310_Pro_5B88_260927_194911.csv,2,26,38,33,46040.6,0.144162,5.52893e+06,0.505785,33.58,0.12,0.596667,0.0199997,0.0528205,0.336388,-0.00244269,0.663612,0.634488,0.535778,0.499532,0.143756,0.258186,0.341794,0.357389,2026-09-27 19:49:58,150,6.1,0.292857,0,0,81.8966,0.523708,0,0.358974,0.641026,0,0,2,25,109.7,0.101538
Green_YC310_Pro_5B88_260927_195131.csv,2,27,37,26,47365.2,0.149461,5.55491e+06,0.510982,33.67,0.09,0.611667,0.0149997,0.052973,0.339017,0.000152473,0.660983,0.651629,0.492265,0.45602,0.161943,0.259075,0.341794,0.3565,2026-09-27 19:52:04,126,6.1,0.292857,0,0,80.4348,0.505435,0,0.351351,0.648649,0,0,2,26,109.7,0.104865
Green_YC310_Pro_5B88_260927_195349.csv,2,28,35,16,58051.4,0.192206,5.55102e+06,0.510204,33.78,0.11,0.63,0.018333,0.06,0.460172,0.007027,0.539828,0.646665,0.497359,0.461114,0.167477,0.263687,0.341794,0.351888,2026-09-27 19:54:26,142,6.9,0.35,0,0,75.8123,0.447654,0,0.2,0.628571,0.142857,0.0285714,2,27,109.7,0.114118
Green_YC310_Pro_5B88_260927_195608.csv,2,29,39,25,47070.2,0.148281,5.63079e+06,0.526158,33.83,0.05,0.638333,0.00833333,0.0569231,0.407122,-0.00307692,0.592878,0.630878,0.52267,0.486424,0.163097,0.267239,0.341794,0.348336,2026-09-27 19:56:44,138,6.9,0.35,0,0,84.1727,0.552159,0.025641,0.128205,0.820513,0.025641,0,2,28,109.7,0.106111
Green_YC310_Pro_5B88_260927_195826.csv,2,30,39,25,50904.8,0.163619,5.39613e+06,0.479226,33.86,0.03,0.643333,0.00500033,0.0572973,0.413574,0.000374197,0.586426,0.619842,0.545622,0.509377,0.159576,0.269559,0.341794,0.346016,2026-09-27 19:59:06,142,6.9,0.35,0,0,83.0966,0.538707,0,0.135135,0.864865,0,0,2,29,109.7,0.107778
Green_YC310_Pro_5B88_260927_200049.csv,2,31,39,21,50696.7,0.162787,5.47888e+06,0.495775,33.88,0.02,0.646667,0.00333367,0.0531579,0.342205,-0.00413941,0.657795,0.635416,0.533726,0.49748,0.164997,0.269465,0.348934,0.35325,2026-09-27 20:01:23,137,6.9,0.35,0,0,84.2333,0.552916,0,0.368421,0.605263,0.0263158,0,2,30,109.7,0.103889
Green_YC310_Pro_5B88_260927_200307.csv,2,32,37,35,52699.3,0.170797,5.50078e+06,0.500156,33.91,0.03,0.651667,0.00499967,0.0542105,0.360354,0.00105263,0.639646,0.656806,0.514093,0.477847,0.164437,0.27116,0.358403,0.361024,2026-09-27 20:03:42,139,6.9,0.35,0,0,79.2291,0.490364,0,0.289474,0.710526,0,0,2,31,109.7,0.106316
Green_YC310_Pro_5B88_260927_200524.csv,2,33,39,32,48341.6,0.153366,5.51182e+06,0.502364,34,0.09,0.666667,0.0149997,0.0512821,0.309863,-0.00292845,0.690137,0.669429,0.507494,0.471248,0.16824,0.275086,0.361965,0.36066,2026-09-27 20:06:01,139,6.9,0.35,0,0,81.8182,0.522728,0,0.435897,0.564103,0,0,2,32,109.7,0.101053
Green_YC310_Pro_5B88_260927_200743.csv,2,34,38,36,61442.4,0.20577,5.54567e+06,0.509133,34.02,0.02,0.67,0.003333,0.0517949,0.318705,0.000512772,0.681295,0.678503,0.509389,0.473144,0.180559,0.273536,0.366525,0.36677,2026-09-27 20:08:18,137,6.9,0.35,0,0,81.4868,0.518585,0,0.410256,0.589744,0,0,2,33,109.7,0.104615
Green_YC310_Pro_5B88_260927_201003.csv,2,35,37,36,61937.8,0.207751,5.55372e+06,0.510744,34.06,0.04,0.676667,0.00666667,0.0526316,0.333131,0.000836679,0.666869,0.673772,0.515055,0.478809,0.1896,0.273729,0.362978,0.363031,2026-09-27 20:10:37,139,6.9,0.35,0,0,79.6841,0.496051,0,0.368421,0.631579,0,0,2,34,109.7,0.103684
Green_YC310_Pro_5B88_260927_201222.csv,2,36,38,31,55122.7,0.180491,5.56803e+06,0.513607,34.13,0.07,0.688333,0.0116663,0.0521053,0.324056,-0.000526337,0.675944,0.671687,0.520721,0.484475,0.200584,0.275088,0.359913,0.358606,2026-09-27 20:12:58,141,6.9,0.35,0,0,79.7203,0.496504,0,0.447368,0.5,0.0526316,0,2,35,109.7,0.100556
Green_YC310_Pro_5B88_260927_201440.csv,2,37,39,34,64143,0.216572,5.49692e+06,0.499383,34.15,0.02,0.691667,0.00333367,0.0545,0.365345,0.0023947,0.634655,0.672247,0.520407,0.484162,0.213509,0.273409,0.359536,0.359907,2026-09-27 20:15:15,137,6.9,0.35,0,0,83.6312,0.54539,0,0.3,0.675,0.025,0,2,36,109.7,0.102778
Green_YC310_Pro_5B88_260927_201702.csv,2,38,38,24,71631.9,0.246527,5.90179e+06,0.580358,34.19,0.04,0.698333,0.00666633,0.0594444,0.450594,0.00494444,0.549406,0.652737,0.517478,0.481233,0.220498,0.274036,0.347051,0.346797,2026-09-27 20:17:37,142,6.9,0.35,0,0,79.6089,0.495111,0,0.138889,0.75,0.111111,0,2,37,109.7,0.107097
Green_YC310_Pro_5B88_260927_201921.csv,2,39,39,20,60364.6,0.201458,5.964e+06,0.592801,34.18,-0.01,0.696667,-0.00166633,0.0555,0.382586,-0.0039444,0.617414,0.650162,0.510493,0.478658,0.227057,0.272125,0.345406,0.347062,2026-09-27 20:19:56,139,6.9,0.35,0,0,82.744,0.5343,0,0.25,0.725,0.025,0,2,38,109.7,0.103684
Green_YC310_Pro_5B88_260927_202137.csv,2,40,36,26,74696.3,0.258785,5.813e+06,0.562601,34.17,-0.01,0.695,-0.001667,0.0522222,0.326073,-0.00327778,0.673927,0.647587,0.502142,0.476082,0.237657,0.269361,0.343655,0.348075,2026-09-27 20:22:12,136,6.9,0.35,0,0,78.2609,0.478261,0,0.388889,0.611111,0,0,2,39,109.7,0.101667
Green_YC310_Pro_5B88_260927_202356.csv,2,41,39,33,72328.7,0.249315,5.79918e+06,0.559836,34.2,0.03,0.7,0.005,0.052,0.322241,-0.0002222,0.677759,0.642355,0.498789,0.472729,0.252727,0.267755,0.339468,0.345493,2026-09-27 20:24:32,140,6,0.285714,0,0,81.4196,0.517745,0,0.4,0.6,0,0,2,40,109.7,0.1005
Green_YC310_Pro_5B88_260927_202616.csv,2,42,38,24,71667.1,0.246669,5.91428e+06,0.582856,34.22,0.02,0.703333,0.00333333,0.0564103,0.39828,0.00441026,0.60172,0.629571,0.50036,0.4743,0.252947,0.26876,0.331763,0.336784,2026-09-27 20:26:53,141,6,0.285714,0,0,79.6646,0.495807,0,0.179487,0.820513,0,0,2,41,109.7,0.106154
Green_YC310_Pro_5B88_260927_202836.csv,2,43,38,32,74861.1,0.259445,6.13608e+06,0.627216,34.22,0,0.703333,3.33333e-07,0.054359,0.362913,-0.00205133,0.637087,0.625482,0.477452,0.470211,0.24258,0.270949,0.327712,0.330544,2026-09-27 20:29:11,138,6,0.285714,0,0,79.0021,0.487526,0,0.307692,0.666667,0.025641,0,2,42,109.7,0.102162
Green_YC310_Pro_5B88_260927_203052.csv,2,44,35,34,61190.8,0.204763,4.9754e+06,0.395079,34.24,0.02,0.706667,0.00333367,0.055,0.373966,0.000641,0.626034,0.629932,0.468783,0.461541,0.232299,0.274171,0.32887,0.32848,2026-09-27 20:31:27,136,6,0.285714,0,0,75.9219,0.449024,0,0.25,0.75,0,0,2,43,109.7,0.11
Green_YC310_Pro_5B88_260927_203312.csv,2,45,37,28,71888.9,0.247556,5.44474e+06,0.488949,34.28,0.04,0.713333,0.00666633,0.0547368,0.369428,-0.000263158,0.630572,0.62887,0.446452,0.46048,0.232691,0.27619,0.325226,0.322816,2026-09-27 20:33:46,139,6,0.285714,0,0,78.3898,0.479872,0,0.289474,0.684211,0.0263158,0,2,44,109.7,0.102778
Green_YC310_Pro_5B88_260927_203531.csv,2,46,33,29,75154.6,0.260618,5.54538e+06,0.509076,34.28,0,0.713333,3.33333e-07,0.0570588,0.409462,0.00232202,0.590538,0.631382,0.416696,0.430724,0.247923,0.272974,0.324345,0.325152,2026-09-27 20:36:07,141,6,0.285714,0,0,70.163,0.377037,0,0.147059,0.852941,0,0,2,45,109.7,0.112727
Green_YC310_Pro_5B88_260927_203750.csv,2,47,35,29,72615.3,0.250461,5.54578e+06,0.509156,34.28,0,0.713333,3.33333e-07,0.0542857,0.36165,-0.00277309,0.63835,0.620376,0.401316,0.419718,0.25562,0.271348,0.316999,0.319432,2026-09-27 20:38:26,139,5.7,0.264286,0,0,74.6269,0.432836,0,0.285714,0.714286,0,0,2,46,109.7,0.106857
Green_YC310_Pro_5B88_260927_204010.csv,2,48,33,24,75235.3,0.260941,5.63583e+06,0.527167,34.27,-0.01,0.711667,-0.00166633,0.0582353,0.429746,0.00394959,0.570254,0.594476,0.394073,0.412476,0.253991,0.271167,0.302272,0.304886,2026-09-27 20:40:47,141,5.7,0.264286,0,0,70.9169,0.386461,0,0.0882353,0.911765,0,0,2,47,109.7,0.111765
Green_YC310_Pro_5B88_260927_204230.csv,2,49,32,30,73134.7,0.252539,5.56992e+06,0.513985,34.25,-0.02,0.708333,-0.00333367,0.059375,0.449397,0.0011397,0.550603,0.587179,0.3895,0.407903,0.25057,0.270838,0.2985,0.301443,2026-09-27 20:43:07,140,5.7,0.264286,0,0,68.4248,0.35531,0,0.03125,0.96875,0,0,2,48,109.7,0.108485
Green_YC310_Pro_5B88_260927_204447.csv,2,50,35,26,70049.7,0.240199,5.60429e+06,0.520857,34.24,-0.01,0.706667,-0.00166633,0.0555556,0.383544,-0.00381944,0.616456,0.591959,0.386557,0.404959,0.246714,0.271127,0.301284,0.303938,2026-09-27 20:45:23,136,5.7,0.264286,0,0,73.5294,0.419117,0,0.222222,0.777778,0,0,2,49,109.7,0.103333
Green_YC310_Pro_5B88_260927_204706.csv,2,51,32,29,72343.2,0.249373,5.59729e+06,0.519458,34.2,-0.04,0.7,-0.006667,0.0574194,0.415679,0.00186375,0.584321,0.593324,0.385242,0.403645,0.23644,0.271195,0.303281,0.305867,2026-09-27 20:47:42,139,5.7,0.264286,0,0,68.1818,0.352272,0,0.129032,0.870968,0,0,2,50,109.7,0.109697
Green_YC310_Pro_5B88_260927_204927.csv,2,52,38,23,61704.3,0.206817,5.57403e+06,0.514806,34.16,-0.04,0.693333,-0.00666667,0.0492308,0.274496,-0.00818863,0.725504,0.586744,0.39601,0.414412,0.227737,0.27093,0.301757,0.304608,2026-09-27 20:50:45,183,5.7,0.264286,0,0,82.0144,0.52518,0,0.538462,0.461538,0,0,2,51,109.7,0.0989744
Green_YC310_Pro_5B88_260927_205145.csv,2,53,32,30,65716.4,0.222866,5.60378e+06,0.520755,34.15,-0.01,0.691667,-0.00166633,0.0569697,0.407926,0.0077389,0.592074,0.587813,0.407967,0.415482,0.227021,0.270556,0.303609,0.306833,2026-09-27 20:52:20,95,5.7,0.264286,0,0,68.0369,0.350461,0,0.151515,0.848485,0,0,2,52,109.7,0.109091
Green_YC310_Pro_5B88_260927_205404.csv,2,54,33,31,71806.2,0.247225,5.54034e+06,0.508069,34.14,-0.01,0.69,-0.001667,0.0570588,0.409462,8.91235e-05,0.590538,0.586643,0.401315,0.414311,0.231946,0.268991,0.302775,0.307565,2026-09-27 20:54:40,140,5.7,0.264286,0,0,70.2128,0.37766,0,0.147059,0.852941,0,0,2,53,109.7,0.109091
Green_YC310_Pro_5B88_260927_205623.csv,2,55,34,30,65398,0.221592,5.69544e+06,0.539088,34.14,0,0.69,1.11022e-16,0.0577143,0.420764,0.000655486,0.579236,0.582985,0.380689,0.410654,0.239091,0.267482,0.299141,0.30544,2026-09-27 20:56:59,139,5.7,0.264286,0,0,71.8816,0.39852,0,0.114286,0.885714,0,0,2,54,109.7,0.108824
Green_YC310_Pro_5B88_260927_205840.csv,2,56,32,30,76488.7,0.265955,5.66731e+06,0.533462,34.11,-0.03,0.685,-0.005,0.0575,0.417069,-0.0002143,0.582931,0.581681,0.368385,0.409349,0.232702,0.267255,0.298464,0.304991,2026-09-27 20:59:16,137,5.7,0.264286,0,0,67.8445,0.348056,0,0.125,0.875,0,0,2,55,109.7,0.113333
Green_YC310_Pro_5B88_260927_210101.csv,2,57,33,28,54326.7,0.177307,4.65515e+06,0.331031,34.1,-0.01,0.683333,-0.00166667,0.0575758,0.418375,7.57576e-05,0.581625,0.590202,0.351931,0.392895,0.208925,0.27175,0.302304,0.304336,2026-09-27 21:01:36,140,5.8,0.271429,0,0,70.3125,0.378906,0,0.121212,0.878788,0,0,2,56,109.7,0.108235
Green_YC310_Pro_5B88_260927_210319.csv,2,58,30,26,63782.8,0.215131,5.23202e+06,0.446404,34.09,-0.01,0.681667,-0.00166633,0.06,0.460172,0.0024242,0.539828,0.606049,0.349929,0.390894,0.191737,0.274854,0.311358,0.310285,2026-09-27 21:03:55,139,5.8,0.271429,0,0,64.1483,0.301854,0,0.0357143,0.928571,0.0357143,0,2,57,109.7,0.114839
Green_YC310_Pro_5B88_260927_210543.csv,2,59,34,28,49844.7,0.159379,5.3259e+06,0.465179,34.06,-0.03,0.676667,-0.00500033,0.0537143,0.351798,-0.00628571,0.648202,0.632501,0.369027,0.409992,0.182403,0.275248,0.32864,0.327173,2026-09-27 21:06:18,143,5.8,0.271429,0,0,72.9614,0.412017,0,0.314286,0.685714,0,0,2,58,109.7,0.105714
Green_YC310_Pro_5B88_260927_210759.csv,2,60,36,26,50217.5,0.16087,5.20747e+06,0.441495,34.04,-0.02,0.673333,-0.00333367,0.052973,0.339017,-0.000741327,0.660983,0.629064,0.390551,0.431516,0.172699,0.276247,0.329036,0.326571,2026-09-27 21:08:33,135,5.9,0.278571,0,0,74.896,0.4362,0,0.351351,0.648649,0,0,2,59,109.7,0.103243
Green_YC310_Pro_5B88_260927_211017.csv,2,61,32,26,56504.8,0.186019,5.25656e+06,0.451312,34.03,-0.01,0.671667,-0.00166633,0.056875,0.406293,0.003902,0.593707,0.626613,0.395594,0.436559,0.17187,0.275896,0.328385,0.32627,2026-09-27 21:10:58,145,5.9,0.278571,0,0,69.3141,0.366426,0,0.15625,0.84375,0,0,2,60,109.7,0.110909
Green_YC310_Pro_5B88_260927_211234.csv,2,62,34,30,49222.9,0.156892,5.5096e+06,0.50192,34.01,-0.02,0.668333,-0.00333367,0.0531429,0.341946,-0.00373214,0.658054,0.617973,0.382652,0.427919,0.175602,0.274057,0.323218,0.322942,2026-09-27 21:13:16,138,5.9,0.278571,0,0,73.0659,0.413324,0,0.342857,0.657143,0,0,2,61,109.7,0.105294
Green_YC310_Pro_5B88_260927_211455.csv,2,63,31,29,60651.8,0.202607,5.37435e+06,0.474871,33.99,-0.02,0.665,-0.003333,0.0587097,0.437925,0.00556678,0.562075,0.598794,0.366826,0.412092,0.184345,0.27116,0.311928,0.314549,2026-09-27 21:15:30,134,5.9,0.278571,0,0,67.0029,0.337536,0,0.0645161,0.935484,0,0,2,62,109.7,0.11125
Green_YC310_Pro_5B88_260927_211716.csv,2,64,33,21,53818,0.175272,5.46749e+06,0.493498,33.97,-0.02,0.661667,-0.00333333,0.0557576,0.387027,-0.00295212,0.612973,0.595024,0.358774,0.408321,0.191581,0.268581,0.309864,0.315064,2026-09-27 21:17:51,141,6,0.285714,0,0,70.3125,0.378906,0,0.212121,0.787879,0,0,2,63,109.7,0.105294
Green_YC310_Pro_5B88_260927_211933.csv,2,65,32,29,63187.4,0.21275,5.42133e+06,0.484267,33.95,-0.02,0.658333,-0.00333367,0.0569697,0.407926,0.0012121,0.592074,0.603095,0.365391,0.414938,0.196863,0.266415,0.31556,0.322926,2026-09-27 21:20:10,139,6,0.285714,0,0,67.1798,0.339747,0,0.151515,0.848485,0,0,2,64,109.7,0.109091
Green_YC310_Pro_5B88_260927_212152.csv,2,66,32,30,64613.5,0.218454,5.34901e+06,0.469803,33.93,-0.02,0.655,-0.003333,0.055625,0.384741,-0.0013447,0.615259,0.600747,0.377519,0.427066,0.198742,0.264967,0.315844,0.324658,2026-09-27 21:22:28,138,6.1,0.292857,0,0,68.7187,0.358984,0,0.21875,0.78125,0,0,2,65,109.7,0.105455
Green_YC310_Pro_5B88_260927_212410.csv,2,67,34,18,55227.5,0.18091,5.72253e+06,0.544506,33.91,-0.02,0.651667,-0.00333333,0.0576471,0.419604,0.00202206,0.580396,0.599868,0.377519,0.427066,0.202514,0.263119,0.316018,0.32668,2026-09-27 21:24:45,137,6.2,0.3,0,0,73.2233,0.415291,0,0.176471,0.764706,0.0588235,0,2,66,109.7,0.108667
Green_YC310_Pro_5B88_260927_212630.csv,2,68,32,28,67124.5,0.228498,5.74492e+06,0.548984,33.88,-0.03,0.646667,-0.00500033,0.0551515,0.376578,-0.00249558,0.623422,0.594641,0.377519,0.427066,0.208178,0.260347,0.314091,0.327525,2026-09-27 21:27:06,141,6.2,0.3,0,0,67.4631,0.343289,0,0.242424,0.757576,0,0,2,67,109.7,0.1075
Green_YC310_Pro_5B88_260927_212850.csv,2,69,32,26,68861.6,0.235446,5.72654e+06,0.545308,33.88,0,0.646667,-3.33333e-07,0.0593333,0.448678,0.00418183,0.551322,0.577597,0.354112,0.410023,0.209227,0.260125,0.302747,0.316403,2026-09-27 21:29:26,140,6.3,0.307143,0,0,67.1798,0.339747,0,0.0333333,0.966667,0,0,2,68,109.7,0.107879
Green_YC310_Pro_5B88_260927_213106.csv,2,70,32,28,63229.8,0.212919,5.89571e+06,0.579142,33.88,0,0.646667,-3.33333e-07,0.0574194,0.415679,-0.00191395,0.584321,0.569498,0.336129,0.401924,0.210276,0.259904,0.296829,0.310706,2026-09-27 21:31:43,137,6.4,0.314286,0,0,67.6056,0.34507,0,0.129032,0.870968,0,0,2,69,109.7,0.112121
Green_YC310_Pro_5B88_260927_213325.csv,2,71,30,25,56276.5,0.185106,4.87153e+06,0.374307,33.87,-0.01,0.645,-0.001667,0.0586207,0.436391,0.00120129,0.563609,0.57285,0.336469,0.402264,0.195622,0.262473,0.299066,0.310374,2026-09-27 21:34:02,139,6.5,0.321429,0,0,65.1702,0.314627,0,0.0689655,0.931034,0,0,2,70,109.7,0.110323
Green_YC310_Pro_5B88_260927_213545.csv,2,72,32,29,57871.2,0.191485,5.22504e+06,0.445007,33.85,-0.02,0.641667,-0.00333333,0.05875,0.438621,0.0001293,0.561379,0.576505,0.349709,0.405919,0.180133,0.264693,0.302797,0.311886,2026-09-27 21:36:21,139,6.5,0.321429,0,0,68.3761,0.354701,0,0.0625,0.9375,0,0,2,71,109.7,0.108485
Green_YC310_Pro_5B88_260927_213805.csv,2,73,36,11,44525.2,0.138101,5.37344e+06,0.474687,33.83,-0.02,0.638333,-0.00333367,0.0544444,0.364387,-0.00430556,0.635613,0.58016,0.379799,0.409574,0.163808,0.267089,0.307824,0.314516,2026-09-27 21:38:41,140,6.5,0.321429,0,0,78.1476,0.476845,0,0.305556,0.666667,0.0277778,0,2,72,109.7,0.102581
Green_YC310_Pro_5B88_260927_214026.csv,2,74,34,26,44032.6,0.136131,5.37723e+06,0.475445,33.8,-0.03,0.633333,-0.00499967,0.0565714,0.401059,0.00212703,0.598941,0.58447,0.368027,0.397801,0.167687,0.264693,0.310332,0.31942,2026-09-27 21:41:04,143,6.5,0.321429,0,0,72.3918,0.404898,0,0.171429,0.828571,0,0,2,73,109.7,0.103429
Green_YC310_Pro_5B88_260927_214243.csv,2,75,31,28,60780.7,0.203123,5.2564e+06,0.451279,33.8,0,0.633333,3.33333e-07,0.058,0.42569,0.0014286,0.57431,0.580947,0.356254,0.394277,0.164975,0.265266,0.307454,0.315969,2026-09-27 21:43:19,135,6.4,0.314286,0,0,67.148,0.33935,0,0.1,0.9,0,0,2,74,109.7,0.11375
Green_YC310_Pro_5B88_260927_214504.csv,2,76,30,21,53816.2,0.175265,5.35382e+06,0.470765,33.82,0.02,0.636667,0.00333367,0.0607143,0.472488,0.00271429,0.527512,0.567438,0.392399,0.430423,0.155671,0.268282,0.302001,0.307501,2026-09-27 21:45:40,141,6.6,0.328571,0,0,64.6088,0.30761,0,0,0.964286,0.0357143,0,2,75,109.7,0.113548
Green_YC310_Pro_5B88_260927_214720.csv,2,77,44,21,37054.8,0.108219,5.43627e+06,0.487254,33.8,-0.02,0.633333,-0.00333367,0.0566667,0.402701,-0.00404763,0.597299,0.560087,0.428545,0.466569,0.147274,0.269004,0.30133,0.306108,2026-09-27 21:47:54,134,6.7,0.335714,0,0,93.8166,0.672707,0,0.190476,0.785714,0.0238095,0,2,76,109.7,0.107692
Green_YC310_Pro_5B88_260927_214939.csv,2,78,36,20,51784.7,0.167139,5.29301e+06,0.458602,33.79,-0.01,0.631667,-0.00166633,0.0589189,0.441533,0.00225222,0.558467,0.561592,0.468093,0.468074,0.138877,0.270251,0.30133,0.30486,2026-09-27 21:50:10,136,6.7,0.335714,0,0,76.0028,0.450035,0,0.135135,0.783784,0.0810811,0,2,77,109.7,0.109091
Green_YC310_Pro_5B88_260927_215159.csv,2,79,35,27,52383.7,0.169535,5.32249e+06,0.464499,33.8,0.01,0.633333,0.00166633,0.0588889,0.441015,-3.00111e-05,0.558985,0.563644,0.487534,0.470126,0.149149,0.268608,0.30133,0.306504,2026-09-27 21:52:31,141,6.5,0.321429,0,0,74.1002,0.426253,0,0.111111,0.833333,0.0555556,0,2,78,109.7,0.114286
Green_YC310_Pro_5B88_260927_215417.csv,2,80,37,10,44758.8,0.139035,5.35893e+06,0.471786,33.83,0.03,0.638333,0.00500033,0.0594595,0.450853,0.000570559,0.549147,0.557259,0.486869,0.469462,0.155341,0.268877,0.30133,0.306235,2026-09-27 21:54:51,140,6.4,0.314286,0,0,77.6224,0.47028,0,0.108108,0.810811,0.0810811,0,2,79,109.7,0.11375
Green_YC310_Pro_5B88_260927_215635.csv,2,81,40,12,48269,0.153076,5.32886e+06,0.465772,33.92,0.09,0.653333,0.0150003,0.0588889,0.441015,-0.000570611,0.558985,0.553579,0.491053,0.473646,0.157453,0.27316,0.30133,0.301951,2026-09-27 21:57:07,136,6.4,0.314286,0,0,83.7989,0.547486,0,0.222222,0.611111,0.166667,0,2,80,109.7,0.12069
Green_YC310_Pro_5B88_260927_215855.csv,2,82,36,21,55061.7,0.180247,5.33278e+06,0.466556,33.96,0.04,0.66,0.006667,0.0616216,0.488131,0.00273272,0.511869,0.552604,0.46756,0.472671,0.172827,0.272016,0.30133,0.303096,2026-09-27 21:59:28,141,6.3,0.307143,0,0,75.1043,0.438804,0,0.0540541,0.810811,0.135135,0,2,81,109.7,0.118286
Green_YC310_Pro_5B88_260927_220114.csv,2,83,34,12,56289.4,0.185158,5.29529e+06,0.459057,34.03,0.07,0.671667,0.0116667,0.0668966,0.579078,0.00527495,0.420922,0.549502,0.437401,0.469569,0.19315,0.271403,0.30133,0.303709,2026-09-27 22:01:48,140,6.2,0.3,0,0,75.6116,0.445145,0,0.0689655,0.551724,0.344828,0.0344828,2,82,109.7,0.123636
Green_YC310_Pro_5B88_260927_220333.csv,2,84,34,29,63511.3,0.214045,5.48805e+06,0.497611,34.12,0.09,0.686667,0.0149997,0.0594286,0.45032,-0.00746803,0.54968,0.546337,0.428255,0.466404,0.211849,0.272184,0.30133,0.302928,2026-09-27 22:04:07,139,6.1,0.292857,0,0,73.5931,0.419914,0,0.0571429,0.914286,0.0285714,0,2,83,109.7,0.114118
Green_YC310_Pro_5B88_260927_220552.csv,2,85,34,31,69085.9,0.236343,5.48529e+06,0.497058,34.08,-0.04,0.68,-0.006667,0.06,0.460172,0.0005714,0.539828,0.54708,0.422175,0.460324,0.216798,0.269036,0.302613,0.307357,2026-09-27 22:06:26,139,6.1,0.292857,0,0,72.9092,0.411365,0,0.0571429,0.885714,0.0571429,0,2,84,109.7,0.114857
Green_YC310_Pro_5B88_260927_220811.csv,2,86,35,29,60550.9,0.202203,5.58608e+06,0.517215,34.08,0,0.68,-3.33067e-16,0.0588889,0.441015,-0.00111111,0.558985,0.546214,0.421881,0.46003,0.219628,0.268439,0.302105,0.307447,2026-09-27 22:08:48,142,6.2,0.3,0,0,74.1525,0.426906,0,0.0833333,0.888889,0.0277778,0,2,85,109.7,0.112778
Green_YC310_Pro_5B88_260927_221030.csv,2,87,35,24,63138.5,0.212554,5.70663e+06,0.541325,34.05,-0.03,0.675,-0.005,0.0605556,0.469751,0.00166666,0.530249,0.539828,0.427779,0.465927,0.220337,0.266713,0.299982,0.30705,2026-09-27 22:11:06,138,6.2,0.3,0,0,73.7878,0.422348,0,0.0555556,0.861111,0.0833333,0,2,86,109.7,0.119444
Green_YC310_Pro_5B88_260927_221250.csv,2,88,35,26,71563.1,0.246253,5.69358e+06,0.538715,34.01,-0.04,0.668333,-0.00666667,0.0605556,0.469751,-4.44444e-08,0.530249,0.526874,0.433387,0.471536,0.238666,0.26074,0.294492,0.307533,2026-09-27 22:13:27,141,6.5,0.321429,0,0,75.1611,0.439514,0,0.111111,0.75,0.138889,0,2,87,109.7,0.120606
Green_YC310_Pro_5B88_260927_221509.csv,2,89,35,21,74298,0.257192,5.71832e+06,0.543664,33.99,-0.02,0.665,-0.003333,0.0611429,0.479877,0.000587257,0.520123,0.540939,0.441299,0.479448,0.23703,0.260035,0.303644,0.31739,2026-09-27 22:15:45,138,6.3,0.307143,0,0,74.5739,0.432174,0,0.0857143,0.771429,0.142857,0,2,88,109.7,0.120571
Green_YC310_Pro_5B88_260927_221727.csv,2,90,36,21,69555.4,0.238222,5.68432e+06,0.536864,33.95,-0.04,0.658333,-0.00666667,0.0583784,0.432213,-0.00276452,0.567787,0.555005,0.45221,0.490359,0.235393,0.258278,0.313693,0.329196,2026-09-27 22:18:02,137,6.3,0.307143,0,0,76.8137,0.460171,0,0.162162,0.756757,0.0810811,0,2,89,109.7,0.118235
Green_YC310_Pro_5B88_260927_221946.csv,2,91,36,21,62691.1,0.210765,5.66356e+06,0.532712,33.9,-0.05,0.65,-0.008333,0.0578378,0.422894,-0.000540562,0.577106,0.576899,0.463785,0.501934,0.200646,0.262988,0.32851,0.339303,2026-09-27 22:20:30,148,6.2,0.3,0,0,77.1429,0.464286,0,0.135135,0.837838,0.027027,0,2,90,109.7,0.107879
Green_YC310_Pro_5B88_260927_222206.csv,2,92,37,7,48237.9,0.152951,5.40123e+06,0.480246,33.91,0.01,0.651667,0.00166667,0.0573333,0.414195,-0.000504467,0.585805,0.578384,0.408515,0.446664,0.224644,0.258446,0.32851,0.343845,2026-09-27 22:22:44,134,6.2,0.3,0,0,77.3519,0.466899,0,0.233333,0.666667,0.1,0,2,91,109.7,0.0882353
Green_YC310_Pro_5B88_260927_222424.csv,2,93,26,2,90083.5,0.320334,5.4475e+06,0.4895,33.82,-0.09,0.636667,-0.0150003,0.0644444,0.536801,0.00711114,0.463199,0.578533,0.353245,0.391394,0.210783,0.256644,0.32851,0.345648,2026-09-27 22:25:00,136,6.3,0.307143,0,0,56.0748,0.200935,0,0.277778,0.277778,0.388889,0.0555556,2,92,109.7,0.0822222
Green_YC310_Pro_5B88_260927_222643.csv,2,94,27,4,40427.2,0.121709,5.1402e+06,0.428039,33.66,-0.16,0.61,-0.026667,0.0753846,0.725424,0.0109402,0.274576,0.577348,0.375129,0.413277,0.159065,0.259157,0.32851,0.343134,2026-09-27 22:27:20,140,6.3,0.307143,0,0,59.1673,0.239591,0,0.153846,0.307692,0.153846,0.384615,2,93,109.7,0.163333
Green_YC310_Pro_5B88_260927_222908.csv,2,95,39,5,18787.6,0.0351505,5.16805e+06,0.43361,33.43,-0.23,0.571667,-0.0383333,0.0530769,0.340809,-0.0223077,0.659191,0.590256,0.397012,0.426186,0.0601944,0.267949,0.32851,0.334343,2026-09-27 22:29:47,147,6.1,0.292857,0,0,82.6271,0.532839,0,0.346154,0.653846,0,0,2,94,109.7,0.11619
Green_YC310_Pro_5B88_260927_223123.csv,2,96,39,6,15930.9,0.0237236,4.4083e+06,0.28166,33.24,-0.19,0.54,-0.031667,0.0558621,0.388829,0.00278517,0.611171,0.59319,0.477337,0.429119,0.0530803,0.259467,0.32851,0.342825,2026-09-27 22:31:59,132,5.9,0.278571,0,0,84.3547,0.554434,0,0.37931,0.517241,0.0344828,0.0689655,2,95,109.7,0.11619
Green_YC310_Pro_5B88_260927_223341.csv,2,97,37,12,28830.7,0.0753228,4.78189e+06,0.356377,33.16,-0.08,0.526667,-0.0133333,0.0577778,0.421858,0.00191568,0.578142,0.599186,0.516741,0.435116,0.0459726,0.256764,0.337564,0.354582,2026-09-27 22:34:18,139,5.8,0.271429,0,0,78.4452,0.480565,0,0.194444,0.722222,0.0833333,0,2,96,109.7,0.105517
Green_YC310_Pro_5B88_260927_223603.csv,2,98,39,18,12380.3,0.00952108,4.66559e+06,0.333118,32.94,-0.22,0.49,-0.036667,0.0567568,0.404254,-0.00102104,0.595746,0.608246,0.521193,0.439568,0.0314513,0.248269,0.350313,0.375825,2026-09-27 22:36:42,144,5.7,0.264286,0,0,84.1121,0.551401,0.027027,0.216216,0.648649,0.108108,0,2,97,109.7,0.107586
Green_YC310_Pro_5B88_260927_223819.csv,2,99,38,8,17860,0.0314401,5.67281e+06,0.534563,32.86,-0.08,0.476667,-0.0133333,0.0542857,0.36165,-0.00247109,0.63835,0.613136,0.529269,0.444457,0.0250023,0.245427,0.356339,0.384693,2026-09-27 22:38:58,136,5.8,0.271429,0,0,80.1124,0.501405,0,0.464286,0.428571,0.0357143,0.0714286,2,98,109.7,0.0961905
Green_YC310_Pro_5B88_260927_224041.csv,2,100,39,17,16902,0.0276079,4.90406e+06,0.380811,32.84,-0.02,0.473333,-0.00333367,0.0552941,0.379037,0.00100842,0.620963,0.618025,0.517893,0.433082,0.0630227,0.236347,0.358869,0.396303,2026-09-27 22:41:17,139,5.8,0.271429,0,0,85.0291,0.562864,0.0294118,0.264706,0.647059,0.0294118,0.0294118,2,99,109.7,0.106207
Green_YC310_Pro_5B88_260927_224301.csv,2,101,33,2,51358.7,0.165435,5.31951e+06,0.463902,32.84,0,0.473333,3.33333e-07,0.065,0.546379,0.0097059,0.453621,0.573842,0.489412,0.4046,0.10888,0.226664,0.331937,0.379054,2026-09-27 22:43:38,141,6,0.285714,0,0,69.1341,0.364176,0,0.166667,0.5,0.25,0.0833333,2,100,109.7,0.105714
Green_YC310_Pro_5B88_260927_224519.csv,2,102,39,13,29260.5,0.0770418,5.95268e+06,0.590535,32.89,0.05,0.481667,0.00833367,0.0583333,0.431437,-0.00666667,0.568563,0.545872,0.466851,0.38204,0.105319,0.230043,0.312873,0.356611,2026-09-27 22:45:55,137,6,0.285714,0,0,83.2148,0.540185,0,0.111111,0.861111,0.0277778,0,2,101,109.7,0.117436
Green_YC310_Pro_5B88_260927_224741.csv,2,103,36,20,35439.8,0.101759,6.1246e+06,0.624921,32.87,-0.02,0.478333,-0.00333367,0.0589474,0.442024,0.000614068,0.557976,0.530542,0.444291,0.36671,0.0891968,0.232397,0.30322,0.344605,2026-09-27 22:48:18,143,6,0.285714,0,0,77.4194,0.467742,0,0.131579,0.789474,0.0789474,0,2,102,109.7,0.118333
Green_YC310_Pro_5B88_260927_224953.csv,2,104,36,23,33027.3,0.092109,4.95615e+06,0.391229,32.85,-0.02,0.475,-0.003333,0.0622857,0.499581,0.00333831,0.500419,0.531844,0.44794,0.368012,0.0887895,0.231432,0.304897,0.347246,2026-09-27 22:50:30,132,6,0.285714,0,0,77.8098,0.472622,0,0.142857,0.657143,0.142857,0.0571429,2,103,109.7,0.1224
Green_YC310_Pro_5B88_260927_225217.csv,2,105,35,29,28955,0.07582,5.05781e+06,0.411561,33.02,0.17,0.503333,0.0283333,0.0583333,0.431437,-0.00395237,0.568563,0.531481,0.441637,0.367648,0.0922855,0.239627,0.298542,0.332696,2026-09-27 22:52:55,145,6,0.285714,0,0,74.1525,0.426906,0,0.111111,0.861111,0.0277778,0,2,104,109.7,0.114857
Green_YC310_Pro_5B88_260927_225432.csv,2,106,36,29,32555.5,0.0902218,4.97907e+06,0.395814,33.06,0.04,0.51,0.006667,0.0583784,0.432213,4.50784e-05,0.567787,0.525459,0.434826,0.361627,0.0957815,0.240991,0.293313,0.326103,2026-09-27 22:55:14,139,6.2,0.3,0,0,75.2089,0.440111,0,0.135135,0.810811,0.0540541,0,2,105,109.7,0.116667
Green_YC310_Pro_5B88_260927_225652.csv,2,107,35,20,38935.7,0.115743,5.45876e+06,0.491752,33.01,-0.05,0.501667,-0.00833333,0.0633333,0.517644,0.00495493,0.482356,0.531414,0.437129,0.36393,0.103139,0.23681,0.298491,0.335463,2026-09-27 22:57:29,135,6.2,0.3,0,0,74.5739,0.432174,0,0.0555556,0.722222,0.222222,0,2,106,109.7,0.12303
Green_YC310_Pro_5B88_260927_225910.csv,2,108,36,31,34473.1,0.0978924,5.36231e+06,0.472461,33.08,0.07,0.513333,0.0116663,0.0572973,0.413574,-0.006036,0.586426,0.53368,0.432644,0.359445,0.11315,0.238374,0.297082,0.332489,2026-09-27 23:00:06,157,6.2,0.3,0,0,75.5245,0.444056,0,0.135135,0.864865,0,0,2,107,109.7,0.112
Green_YC310_Pro_5B88_260927_230128.csv,2,109,35,20,42653.3,0.130613,5.62511e+06,0.525022,33.13,0.05,0.521667,0.00833367,0.0616667,0.488908,0.00436937,0.511092,0.532259,0.421701,0.358024,0.125815,0.238327,0.293779,0.329232,2026-09-27 23:02:02,116,6.2,0.3,0,0,75.2688,0.44086,0,0.111111,0.694444,0.194444,0,2,108,109.7,0.1275
Green_YC310_Pro_5B88_260927_230347.csv,2,110,33,20,48434.3,0.153737,5.60371e+06,0.520741,33.11,-0.02,0.518333,-0.00333367,0.0623529,0.50074,0.000686241,0.49926,0.497569,0.424045,0.360368,0.131164,0.236147,0.275199,0.312833,2026-09-27 23:04:22,140,6.2,0.3,0,0,71.9477,0.399346,0,0.0294118,0.823529,0.147059,0,2,109,109.7,0.125161
Green_YC310_Pro_5B88_260927_230606.csv,2,111,35,21,44313.5,0.137254,5.60413e+06,0.520826,33.1,-0.01,0.516667,-0.00166633,0.0633333,0.517644,0.000980433,0.482356,0.511937,0.425928,0.362251,0.136512,0.234492,0.283723,0.323012,2026-09-27 23:06:39,137,6.6,0.328571,0,0,76.087,0.451088,0,0.0277778,0.777778,0.194444,0,2,110,109.7,0.121143
Green_YC310_Pro_5B88_260927_230826.csv,2,112,35,22,39636.4,0.118546,5.59807e+06,0.519614,33.09,-0.01,0.515,-0.001667,0.0588235,0.439888,-0.00450977,0.560112,0.526305,0.427351,0.363674,0.124261,0.236553,0.292212,0.32944,2026-09-27 23:09:04,145,6.6,0.328571,0,0,73.478,0.418475,0,0.0882353,0.882353,0.0294118,0,2,111,109.7,0.118182
Green_YC310_Pro_5B88_260927_231044.csv,2,113,34,29,39245.9,0.116983,5.50124e+06,0.500248,33.18,0.09,0.53,0.015,0.0582353,0.429746,-0.000588206,0.570254,0.535747,0.417771,0.354094,0.124229,0.241289,0.293763,0.326254,2026-09-27 23:11:49,165,6.6,0.328571,0,0,72.2892,0.403615,0,0.117647,0.852941,0.0294118,0,2,112,109.7,0.114286
Green_YC310_Pro_5B88_260927_231303.csv,2,114,35,19,42861.1,0.131444,5.59978e+06,0.519957,33.3,0.12,0.55,0.02,0.0606061,0.470622,0.00237076,0.529378,0.545189,0.416394,0.352717,0.122537,0.247953,0.294944,0.320773,2026-09-27 23:13:38,109,6.3,0.307143,0,0,73.7878,0.422348,0,0.181818,0.606061,0.212121,0,2,113,109.7,0.120741
Green_YC310_Pro_5B88_260927_231522.csv,2,115,34,23,37568.7,0.110275,5.50444e+06,0.500889,33.42,0.12,0.57,0.02,0.0611429,0.479877,0.000536757,0.520123,0.555188,0.436106,0.362717,0.122587,0.254248,0.298059,0.317593,2026-09-27 23:15:56,138,6.3,0.307143,0,0,73.3813,0.417266,0,0.0857143,0.771429,0.142857,0,2,114,109.7,0.123636
Green_YC310_Pro_5B88_260927_231741.csv,2,116,37,18,42561.7,0.130247,5.47002e+06,0.494004,33.5,0.08,0.583333,0.0133333,0.0572222,0.41228,-0.00392068,0.58772,0.565188,0.448513,0.372716,0.126043,0.257722,0.301946,0.318005,2026-09-27 23:18:25,149,6.2,0.3,0,0,79.0036,0.487545,0,0.222222,0.694444,0.0833333,0,2,115,109.7,0.11875
Green_YC310_Pro_5B88_260927_232001.csv,2,117,34,28,44401.6,0.137606,5.33125e+06,0.466251,33.58,0.08,0.596667,0.0133337,0.0572222,0.41228,2.22222e-08,0.58772,0.529975,0.431785,0.355988,0.150323,0.256799,0.278275,0.295257,2026-09-27 23:20:39,134,6.2,0.3,0,0,72.1358,0.401698,0.0277778,0.222222,0.638889,0.0833333,0.0277778,2,116,109.7,0.118182
Green_YC310_Pro_5B88_260927_232222.csv,2,118,36,21,55779,0.183116,5.49393e+06,0.498786,33.73,0.15,0.621667,0.0249997,0.0583333,0.431437,0.00111113,0.568563,0.56537,0.417968,0.342171,0.157462,0.263174,0.292034,0.302641,2026-09-27 23:23:03,144,6.2,0.3,0,0,74.896,0.4362,0,0.222222,0.638889,0.138889,0,2,117,109.7,0.1175
Green_YC310_Pro_5B88_260927_232445.csv,2,119,34,29,49624.3,0.158497,5.45972e+06,0.491945,33.82,0.09,0.636667,0.0149997,0.06,0.460172,0.0016667,0.539828,0.55633,0.416008,0.340211,0.1646,0.266396,0.28382,0.291206,2026-09-27 23:25:21,138,6.2,0.3,0,0,73.0136,0.41267,0,0.114286,0.771429,0.114286,0,2,118,109.7,0.117647
Green_YC310_Pro_5B88_260927_232657.csv,2,120,34,23,48046.9,0.152188,5.45549e+06,0.491097,33.77,-0.05,0.628333,-0.00833367,0.0594286,0.45032,-0.000571429,0.54968,0.547289,0.39691,0.33117,0.161871,0.264345,0.278956,0.288392,2026-09-27 23:27:34,133,6.2,0.3,0,0,71.9323,0.399154,0,0.114286,0.8,0.0857143,0,2,119,109.7,0.119355
Green_YC310_Pro_5B88_260927_232916.csv,2,121,33,24,47618.3,0.150473,5.38668e+06,0.477337,33.75,-0.02,0.625,-0.003333,0.0570588,0.409462,-0.00236978,0.590538,0.55067,0.401126,0.334551,0.147762,0.266273,0.28184,0.289348,2026-09-27 23:29:53,139,6.2,0.3,0,0,70.3125,0.378906,0,0.147059,0.852941,0,0,2,120,109.7,0.112941
Green_YC310_Pro_5B88_260927_233135.csv,2,122,35,18,45156.5,0.140626,5.64168e+06,0.528336,33.81,0.06,0.635,0.01,0.0594118,0.45003,0.00235296,0.54997,0.556236,0.406409,0.339835,0.159309,0.266988,0.283363,0.290157,2026-09-27 23:32:12,139,6.2,0.3,0,0,74.2049,0.427561,0,0.147059,0.735294,0.117647,0,2,121,109.7,0.109032
Green_YC310_Pro_5B88_260927_233356.csv,2,123,34,27,57384.6,0.189539,5.5571e+06,0.51142,33.86,0.05,0.643333,0.00833333,0.0582353,0.429746,-0.00117651,0.570254,0.560112,0.401536,0.334961,0.173293,0.266662,0.283492,0.290611,2026-09-27 23:34:31,139,6.2,0.3,0,0,71.3287,0.391609,0,0.147059,0.794118,0.0588235,0,2,122,109.7,0.110968
Green_YC310_Pro_5B88_260927_233613.csv,2,124,34,27,53367.3,0.173469,5.67612e+06,0.535224,33.89,0.03,0.648333,0.00500033,0.0588571,0.440468,0.000621843,0.559532,0.560112,0.393477,0.326902,0.183754,0.26603,0.281873,0.289624,2026-09-27 23:36:54,143,6.2,0.3,0,0,71.6292,0.395365,0,0.114286,0.828571,0.0571429,0,2,123,109.7,0.11
Green_YC310_Pro_5B88_260927_233833.csv,2,125,33,24,59634.3,0.198537,6.02354e+06,0.604707,33.91,0.02,0.651667,0.00333367,0.0594118,0.45003,0.000554665,0.54997,0.558422,0.393154,0.326579,0.185133,0.26679,0.280235,0.287226,2026-09-27 23:39:14,140,6.2,0.3,0,0,71.3256,0.39157,0,0.0588235,0.911765,0.0294118,0,2,124,109.7,0.118182
Green_YC310_Pro_5B88_260927_234053.csv,2,126,34,21,52497.1,0.169988,5.04517e+06,0.409033,33.86,-0.05,0.643333,-0.00833367,0.0588235,0.439888,-0.000588271,0.560112,0.556731,0.39093,0.324889,0.180995,0.265036,0.280784,0.289529,2026-09-27 23:41:32,138,6.2,0.3,0,0,71.5288,0.39411,0,0.0882353,0.882353,0.0294118,0,2,125,109.7,0.120606
Green_YC310_Pro_5B88_260927_234313.csv,2,127,33,29,56366.6,0.185466,5.04922e+06,0.409844,33.81,-0.05,0.635,-0.008333,0.0588235,0.439888,2.94118e-08,0.560112,0.569771,0.398701,0.33266,0.176541,0.263349,0.29035,0.300782,2026-09-27 23:43:53,141,6.2,0.3,0,0,70.7143,0.383929,0,0.0588235,0.941176,0,0,2,126,109.7,0.12
Green_YC310_Pro_5B88_260927_234533.csv,2,128,35,25,51310.8,0.165243,5.39853e+06,0.479707,33.8,-0.01,0.633333,-0.00166667,0.0571429,0.410911,-0.00168064,0.589089,0.574536,0.40713,0.337425,0.175665,0.263009,0.294,0.304773,2026-09-27 23:46:10,137,6.2,0.3,0,0,74.6269,0.432836,0,0.2,0.742857,0.0571429,0,2,127,109.7,0.114375
Green_YC310_Pro_5B88_260927_234748.csv,2,129,33,32,53557.8,0.174231,5.26542e+06,0.453083,33.92,0.12,0.653333,0.0200003,0.0570588,0.409462,-8.40765e-05,0.590538,0.576918,0.404626,0.334921,0.176286,0.269183,0.291142,0.29574,2026-09-27 23:48:27,137,6.2,0.3,0,0,72.2101,0.402626,0,0.147059,0.852941,0,0,2,128,109.7,0.114118
Green_YC310_Pro_5B88_260927_235010.csv,2,130,33,30,57346.3,0.189385,5.44163e+06,0.488327,34,0.08,0.666667,0.0133337,0.0582353,0.429746,0.00117649,0.570254,0.576918,0.405051,0.335346,0.191359,0.270204,0.288508,0.292084,2026-09-27 23:50:49,142,5.9,0.278571,0,0,70.1133,0.376416,0,0.117647,0.852941,0.0294118,0,2,129,109.7,0.10875
Green_YC310_Pro_5B88_260927_235228.csv,2,131,34,18,62615.4,0.210462,5.57216e+06,0.514433,34.04,0.04,0.673333,0.00666633,0.0622857,0.499581,0.00405041,0.500419,0.578464,0.405477,0.335771,0.178745,0.27497,0.288072,0.286883,2026-09-27 23:53:40,171,5.9,0.278571,0,0,72.8571,0.410714,0,0.0857143,0.742857,0.142857,0.0285714,2,130,109.7,0.122424
Green_YC310_Pro_5B88_260927_235447.csv,2,132,34,26,54480,0.17792,5.58882e+06,0.517764,34.08,0.04,0.68,0.006667,0.0582857,0.430616,-0.00399999,0.569384,0.579236,0.412377,0.336544,0.16613,0.279736,0.287702,0.281748,2026-09-27 23:55:25,105,5.9,0.278571,0,0,74.344,0.4293,0,0.142857,0.8,0.0571429,0,2,131,109.7,0.113143
Green_YC310_Pro_5B88_260927_235708.csv,2,133,40,15,40449.4,0.121798,5.64342e+06,0.528684,34.13,0.05,0.688333,0.00833333,0.0531579,0.342205,-0.00512781,0.657795,0.573044,0.438819,0.362986,0.160965,0.283454,0.284601,0.274928,2026-09-27 23:57:48,143,5.9,0.278571,0,0,84.9858,0.562322,0,0.368421,0.605263,0.0263158,0,2,132,109.7,0.102353
Green_YC310_Pro_5B88_260927_235923.csv,2,134,35,32,58741.9,0.194967,5.53095e+06,0.506189,34.16,0.03,0.693333,0.00500033,0.056,0.391207,0.0028421,0.608793,0.556932,0.435153,0.359319,0.164865,0.284207,0.274296,0.263871,2026-09-28 00:00:03,135,5.9,0.278571,0,0,75.8671,0.448339,0,0.2,0.8,0,0,2,133,109.7,0.108824
Green_YC310_Pro_5B88_260928_000142.csv,2,135,35,26,51470.3,0.165881,5.50859e+06,0.501718,34.18,0.02,0.696667,0.00333367,0.0594444,0.450594,0.00344444,0.549406,0.545681,0.431486,0.355653,0.177831,0.28252,0.267047,0.258308,2026-09-28 00:02:25,142,5.9,0.278571,0,0,75.2688,0.44086,0,0.111111,0.805556,0.0833333,0,2,134,109.7,0.116111
Green_YC310_Pro_5B88_260928_000401.csv,2,136,34,30,50173.6,0.160694,5.54077e+06,0.508154,34.21,0.03,0.701667,0.00499967,0.06,0.460172,0.0005556,0.539828,0.543021,0.432498,0.356664,0.181054,0.283416,0.264635,0.255,2026-09-28 00:04:43,138,5.8,0.271429,0,0,73.1707,0.414634,0,0.0571429,0.885714,0.0571429,0,2,135,109.7,0.117714
Green_YC310_Pro_5B88_260928_000620.csv,2,137,36,26,61159.2,0.204637,5.50657e+06,0.501313,34.24,0.03,0.706667,0.00499967,0.06,0.460172,4.16334e-17,0.539828,0.549841,0.429697,0.353863,0.18626,0.283893,0.267239,0.257128,2026-09-28 00:06:58,135,5.6,0.257143,0,0,76.1099,0.451374,0,0.0277778,0.944444,0.0277778,0,2,136,109.7,0.113714
Green_YC310_Pro_5B88_260928_000839.csv,2,138,34,33,56636,0.186544,5.70611e+06,0.541222,34.27,0.03,0.711667,0.00499967,0.0582857,0.430616,-0.00171429,0.569384,0.546504,0.423084,0.350526,0.19345,0.283951,0.263862,0.253692,2026-09-28 00:09:18,140,5.6,0.257143,0,0,73.1183,0.413979,0,0.114286,0.857143,0.0285714,0,2,137,109.7,0.114857
Green_YC310_Pro_5B88_260928_001100.csv,2,139,33,24,55565.8,0.182263,5.91462e+06,0.582924,34.27,0,0.711667,-3.33333e-07,0.0593939,0.449723,0.00110824,0.550277,0.548729,0.418449,0.345891,0.199429,0.282688,0.264752,0.255844,2026-09-28 00:11:46,148,5.6,0.257143,0,0,71.5835,0.394794,0,0.0606061,0.909091,0.030303,0,2,138,109.7,0.113125
Green_YC310_Pro_5B88_260928_001317.csv,2,140,35,30,63487.3,0.213949,6.10583e+06,0.621167,34.27,0,0.711667,-3.33333e-07,0.0594444,0.450594,5.05444e-05,0.549406,0.554413,0.413815,0.341257,0.205409,0.281426,0.267578,0.259934,2026-09-28 00:13:58,132,5.5,0.25,0,0,73.8916,0.423645,0,0.0555556,0.916667,0.0277778,0,2,139,109.7,0.113889
Green_YC310_Pro_5B88_260928_001537.csv,2,141,35,30,65003.5,0.220014,6.2445e+06,0.648901,34.25,-0.02,0.708333,-0.00333367,0.0583333,0.431437,-0.00111107,0.568563,0.559202,0.372073,0.299515,0.235389,0.274044,0.267578,0.267315,2026-09-28 00:16:14,136,5.5,0.25,0,0,74.6269,0.432836,0,0.111111,0.861111,0.0277778,0,2,140,109.7,0.114444
Green_YC310_Pro_5B88_260928_001755.csv,2,142,32,30,78050.9,0.272203,6.509e+06,0.701799,34.23,-0.02,0.705,-0.003333,0.0593939,0.449723,0.00106064,0.550277,0.580637,0.330332,0.257773,0.170143,0.286771,0.267578,0.254589,2026-09-28 00:18:35,141,5.4,0.242857,0,0,67.6056,0.34507,0,0.0606061,0.909091,0.030303,0,2,141,109.7,0.114375
Green_YC310_Pro_5B88_260928_002014.csv,2,143,38,12,10709.5,0.00283819,4.81271e+06,0.362542,34.13,-0.1,0.688333,-0.0166667,0.0496774,0.282197,-0.00971648,0.717803,0.623071,0.374258,0.300207,0.277181,0.258913,0.267578,0.282446,2026-09-28 00:20:49,134,5.4,0.242857,0,0,84.4444,0.555555,0,0.612903,0.322581,0.0322581,0.0322581,2,142,109.7,0.0792
Green_YC310_Pro_5B88_260928_002235.csv,2,144,12,1,217711,0.830845,6.56112e+06,0.712224,33.97,-0.16,0.661667,-0.0266663,0.09,0.977414,0.0403226,0.0225862,0.632105,0.422258,0.309242,0.425631,0.219158,0.267578,0.322202,2026-09-28 00:23:13,144,5.2,0.228571,0,0,48.8467,0.110584,0,0,0.1,0.3,0.6,2,143,109.7,0.224
Green_YC310_Pro_5B88_260928_002454.csv,2,145,41,18,19498.7,0.0379946,4.73756e+06,0.347512,33.88,-0.09,0.646667,-0.0150003,0.0522222,0.326073,-0.0377778,0.673927,0.625942,0.445485,0.332469,0.248601,0.251811,0.268913,0.290883,2026-09-28 00:25:32,139,5.2,0.228571,0,0,85.8939,0.573674,0.0277778,0.333333,0.638889,0,0,2,144,109.7,0.104242
Green_YC310_Pro_5B88_260928_002713.csv,2,146,40,12,31892.7,0.0875709,5.88869e+06,0.577739,33.87,-0.01,0.645,-0.001667,0.05625,0.395517,0.0040278,0.604483,0.604581,0.46336,0.350343,0.0694219,0.289122,0.258658,0.243317,2026-09-28 00:27:51,139,5.2,0.228571,0,0,84.2697,0.553371,0,0.25,0.6875,0.0625,0,2,145,109.7,0.119355
Green_YC310_Pro_5B88_260928_002930.csv,2,147,38,10,26137.8,0.0645514,5.59736e+06,0.519473,33.9,0.03,0.65,0.005,0.0546667,0.368218,-0.00158333,0.631782,0.588232,0.504731,0.391715,0.0892164,0.286518,0.251683,0.238946,2026-09-28 00:30:08,137,5.4,0.242857,0,0,81.5451,0.519314,0,0.3,0.666667,0.0333333,0,2,146,109.7,0.112667
Green_YC310_Pro_5B88_260928_003148.csv,2,148,36,8,45048,0.140192,5.91311e+06,0.582622,33.9,0,0.65,-2.22045e-16,0.0606667,0.471667,0.00599997,0.528333,0.574052,0.481602,0.377534,0.114591,0.28116,0.241964,0.234585,2026-09-28 00:32:29,141,5.4,0.242857,0,0,76.4873,0.456091,0,0.166667,0.7,0.0666667,0.0666667,2,147,109.7,0.116
Green_YC310_Pro_5B88_260928_003411.csv,2,149,40,13,38356.8,0.113427,5.90164e+06,0.580328,33.83,-0.07,0.638333,-0.0116667,0.0542857,0.36165,-0.00638099,0.63835,0.56204,0.458473,0.365522,0.146803,0.27068,0.235792,0.238894,2026-09-28 00:34:49,140,5.4,0.242857,0,0,86.0215,0.575269,0,0.285714,0.714286,0,0,2,148,109.7,0.10125
Green_YC310_Pro_5B88_260928_003628.csv,2,150,36,24,65041.3,0.220165,6.9752e+06,0.795041,33.65,-0.18,0.608333,-0.0299997,0.0567568,0.404254,0.00247106,0.595746,0.562587,0.454524,0.361573,0.18902,0.252306,0.241795,0.26327,2026-09-28 00:37:11,142,5.3,0.235714,0,0,76.8683,0.460854,0,0.243243,0.675676,0.0810811,0,2,149,109.7,0.112
Green_YC310_Pro_5B88_260928_003846.csv,2,151,35,24,60581.1,0.202324,7.32029e+06,0.864059,33.64,-0.01,0.606667,-0.00166633,0.0605714,0.470025,0.00381463,0.529975,0.560922,0.453604,0.360654,0.215395,0.246211,0.241125,0.268695,2026-09-28 00:39:26,135,5.3,0.235714,0,0,75.5396,0.444245,0,0.142857,0.714286,0.114286,0.0285714,2,150,109.7,0.116875
Green_YC310_Pro_5B88_260928_004105.csv,2,152,35,22,64022.3,0.216089,7.48226e+06,0.896453,33.66,0.02,0.61,0.003333,0.0588571,0.440468,-0.00171426,0.559532,0.557044,0.446929,0.356776,0.223697,0.245509,0.237774,0.266046,2026-09-28 00:41:43,137,5.4,0.242857,0,0,77.2059,0.465074,0,0.114286,0.828571,0.0571429,0,2,151,109.7,0.109032
Green_YC310_Pro_5B88_260928_004328.csv,2,153,34,20,71267.2,0.245069,7.6216e+06,0.92432,33.77,0.11,0.628333,0.0183333,0.0575758,0.418375,-0.00128134,0.581625,0.579485,0.434502,0.344349,0.199494,0.2564,0.245719,0.2631,2026-09-28 00:44:07,144,5.4,0.242857,0,0,73.0659,0.413324,0,0.121212,0.878788,0,0,2,152,109.7,0.116364
Green_YC310_Pro_5B88_260928_004545.csv,2,154,35,28,42429,0.129716,4.86755e+06,0.37351,33.77,0,0.628333,3.33333e-07,0.0566667,0.402701,-0.000909133,0.597299,0.592074,0.432788,0.342635,0.176561,0.261243,0.252637,0.265175,2026-09-28 00:46:26,139,5.7,0.264286,0,0,75.703,0.446288,0,0.194444,0.777778,0.0277778,0,2,153,109.7,0.116111
Green_YC310_Pro_5B88_260928_004804.csv,2,155,34,19,50483.4,0.161934,5.34543e+06,0.469087,33.74,-0.03,0.623333,-0.00499967,0.0623529,0.50074,0.00568624,0.49926,0.594687,0.452929,0.345248,0.154898,0.264241,0.256649,0.266189,2026-09-28 00:48:44,138,5.7,0.264286,0,0,74.0203,0.425254,0,0.117647,0.647059,0.235294,0,2,154,109.7,0.121875
Green_YC310_Pro_5B88_260928_005022.csv,2,156,39,19,55020.2,0.180081,5.69625e+06,0.53925,33.76,0.02,0.626667,0.00333367,0.054359,0.362913,-0.00799393,0.637087,0.605724,0.469495,0.356285,0.168827,0.262351,0.263436,0.274867,2026-09-28 00:51:00,136,5.7,0.264286,0,0,81.1936,0.51492,0.025641,0.307692,0.589744,0.0769231,0,2,155,109.7,0.101935
Green_YC310_Pro_5B88_260928_005239.csv,2,157,36,31,52875,0.1715,6.0605e+06,0.6121,33.85,0.09,0.641667,0.0149997,0.0545946,0.366976,0.000235595,0.633024,0.609356,0.46831,0.355101,0.181216,0.264464,0.262379,0.271697,2026-09-28 00:53:18,138,5.7,0.264286,0,0,76.0563,0.450704,0,0.27027,0.72973,0,0,2,156,109.7,0.104324
Green_YC310_Pro_5B88_260928_005459.csv,2,158,35,33,57528.2,0.190113,6.20966e+06,0.641932,33.98,0.13,0.663333,0.0216663,0.0566667,0.402701,0.00207207,0.597299,0.605583,0.455479,0.351327,0.192066,0.269004,0.254947,0.259724,2026-09-28 00:55:37,139,5.8,0.271429,0,0,73.736,0.4217,0,0.166667,0.833333,0,0,2,157,109.7,0.111667
Green_YC310_Pro_5B88_260928_005719.csv,2,159,35,27,63646.3,0.214585,6.44663e+06,0.689325,34.08,0.1,0.68,0.016667,0.0577778,0.421858,0.00111108,0.578142,0.612832,0.442649,0.338497,0.21263,0.269917,0.254686,0.258551,2026-09-28 00:58:00,143,5.8,0.271429,0,0,75.3228,0.441535,0,0.138889,0.833333,0.0277778,0,2,158,109.7,0.111765
Green_YC310_Pro_5B88_260928_005939.csv,2,160,36,22,68297.6,0.233191,6.70509e+06,0.741017,34.2,0.12,0.7,0.02,0.0533333,0.34523,-0.00444447,0.65477,0.613553,0.442478,0.338326,0.2307,0.272407,0.251077,0.252451,2026-09-28 01:00:23,143,5.8,0.271429,0,0,77.0878,0.463597,0,0.333333,0.666667,0,0,2,159,109.7,0.106286
Green_YC310_Pro_5B88_260928_010156.csv,2,161,36,24,71080.6,0.244323,6.80889e+06,0.761778,34.21,0.01,0.701667,0.00166667,0.0583333,0.431437,0.00500003,0.568563,0.607748,0.442306,0.338154,0.24782,0.269317,0.24748,0.251943,2026-09-28 01:02:36,133,5.8,0.271429,0,0,76.3251,0.454064,0,0.166667,0.75,0.0833333,0,2,160,109.7,0.110303
Green_YC310_Pro_5B88_260928_010417.csv,2,162,33,25,76486.3,0.265945,6.91181e+06,0.782362,34.21,0,0.701667,-3.33333e-07,0.0587879,0.439274,0.000454579,0.560726,0.595706,0.416619,0.326113,0.25701,0.267376,0.238761,0.245166,2026-09-28 01:04:56,140,5.8,0.271429,0,0,72.7406,0.409257,0,0.151515,0.757576,0.0909091,0,2,161,109.7,0.11625
Green_YC310_Pro_5B88_260928_010633.csv,2,163,34,30,74316.4,0.257266,7.10695e+06,0.821391,34.24,0.03,0.706667,0.00499967,0.0554286,0.381355,-0.00335933,0.618645,0.594603,0.393532,0.325009,0.267896,0.266654,0.235369,0.242496,2026-09-28 01:07:12,136,5.8,0.271429,0,0,72.1358,0.401698,0,0.228571,0.771429,0,0,2,162,109.7,0.108824
Green_YC310_Pro_5B88_260928_010855.csv,2,164,33,26,82777.3,0.291109,7.30675e+06,0.86135,34.27,0.03,0.711667,0.00499967,0.0576471,0.419604,0.00221846,0.580396,0.60691,0.384927,0.316405,0.281773,0.2653,0.240599,0.24908,2026-09-28 01:09:33,141,5.9,0.278571,0,0,69.5713,0.369641,0,0.147059,0.823529,0.0294118,0,2,163,109.7,0.115152
Green_YC310_Pro_5B88_260928_011113.csv,2,165,34,32,81902.1,0.287608,7.48683e+06,0.897366,34.27,0,0.711667,-3.33333e-07,0.0537143,0.351798,-0.00393281,0.648202,0.614953,0.379844,0.311321,0.297578,0.261963,0.244712,0.256531,2026-09-28 01:11:50,137,5.9,0.278571,0,0,71.3287,0.391609,0,0.314286,0.685714,0,0,2,164,109.7,0.106286
Green_YC310_Pro_5B88_260928_011332.csv,2,166,34,31,90996.9,0.323988,7.60252e+06,0.920505,34.25,-0.02,0.708333,-0.00333367,0.0541176,0.358753,0.000403347,0.641247,0.616262,0.378282,0.309759,0.274319,0.265823,0.245992,0.253949,2026-09-28 01:14:10,140,5.9,0.278571,0,0,70.3448,0.37931,0,0.294118,0.705882,0,0,2,165,109.7,0.105714
Green_YC310_Pro_5B88_260928_011554.csv,2,167,31,20,50423.1,0.161692,4.7398e+06,0.347959,34.25,0,0.708333,3.33333e-07,0.0574194,0.415679,0.00330175,0.584321,0.612231,0.377196,0.308673,0.211675,0.279052,0.243651,0.238381,2026-09-28 01:16:31,141,5.9,0.278571,0,0,69.1964,0.364955,0,0.129032,0.870968,0,0,2,166,109.7,0.1075
Green_YC310_Pro_5B88_260928_012029.csv,2,168,33,30,59832.3,0.199329,5.2557e+06,0.451141,34.2,-0.05,0.7,-0.008333,0.056875,0.406293,-0.0005444,0.593707,0.611252,0.37611,0.307694,0.185666,0.281916,0.244686,0.236551,2026-09-28 01:21:09,278,5.9,0.278571,0,0,69.8659,0.373324,0,0.15625,0.84375,0,0,2,168,109.7,0.108824
Green_YC310_Pro_5B88_260928_012249.csv,2,169,34,32,58182.3,0.192729,5.45505e+06,0.491011,34.16,-0.04,0.693333,-0.00666667,0.0542857,0.36165,-0.00258929,0.63835,0.613324,0.37537,0.306954,0.195976,0.277637,0.247123,0.243267,2026-09-28 01:23:27,138,5.9,0.278571,0,0,70.9812,0.387265,0,0.285714,0.714286,0,0,2,169,109.7,0.104
Green_YC310_Pro_5B88_260928_012506.csv,2,170,33,31,58156.1,0.192624,5.5861e+06,0.517219,34.13,-0.03,0.688333,-0.00499967,0.0570588,0.409462,0.00277312,0.590538,0.612578,0.374631,0.306215,0.199015,0.275419,0.247648,0.24601,2026-09-28 01:25:48,141,6.3,0.307143,0,0,69.9647,0.374559,0,0.147059,0.852941,0,0,2,170,109.7,0.107059
Green_YC310_Pro_5B88_260928_012725.csv,2,171,32,28,59476.1,0.197904,5.81263e+06,0.562525,34.08,-0.05,0.68,-0.008333,0.0545455,0.366129,-0.00251335,0.633871,0.615201,0.361561,0.293145,0.202053,0.27215,0.249779,0.25141,2026-09-28 01:28:03,135,6.3,0.307143,0,0,68.9655,0.362069,0,0.272727,0.727273,0,0,2,171,109.7,0.107273
Green_YC310_Pro_5B88_260928_012945.csv,2,172,32,29,62870.4,0.211482,6.05512e+06,0.611024,34.03,-0.05,0.671667,-0.00833333,0.0563636,0.397476,0.00181814,0.602524,0.629636,0.387894,0.30758,0.187717,0.27255,0.261553,0.262785,2026-09-28 01:30:25,142,6.3,0.307143,0,0,67.8445,0.348056,0,0.181818,0.818182,0,0,2,172,109.7,0.106667
Green_YC310_Pro_5B88_260928_013204.csv,2,173,36,28,47404.3,0.149617,6.31428e+06,0.662856,34,-0.03,0.666667,-0.00500033,0.0518919,0.320377,-0.00447171,0.679623,0.648185,0.411573,0.326129,0.180648,0.272466,0.274761,0.276076,2026-09-28 01:32:47,142,6.3,0.307143,0,0,76.3251,0.454064,0,0.405405,0.594595,0,0,2,173,109.7,0.101622
Green_YC310_Pro_5B88_260928_013423.csv,2,174,34,27,54111.1,0.176444,6.39964e+06,0.679928,33.95,-0.05,0.658333,-0.00833367,0.0525714,0.332094,0.000679529,0.667906,0.662408,0.432598,0.340352,0.180844,0.269797,0.286009,0.289993,2026-09-28 01:35:06,139,6.3,0.307143,0,0,74.0203,0.425254,0,0.371429,0.628571,0,0,2,174,109.7,0.100571
Green_YC310_Pro_5B88_260928_013641.csv,2,175,35,24,64117.6,0.21647,6.59817e+06,0.719634,33.91,-0.04,0.651667,-0.00666633,0.0538889,0.354808,0.00131749,0.645192,0.655218,0.412613,0.333162,0.198137,0.264044,0.28178,0.291517,2026-09-28 01:37:24,138,6.3,0.307143,0,0,73.478,0.418475,0,0.305556,0.694444,0,0,2,175,109.7,0.103889
Green_YC310_Pro_5B88_260928_013900.csv,2,176,34,29,65537.4,0.22215,6.73051e+06,0.746102,33.91,0,0.651667,-3.33333e-07,0.0531429,0.341946,-0.000746043,0.658054,0.646634,0.394892,0.324578,0.228426,0.257648,0.275611,0.291744,2026-09-28 01:39:45,141,6.3,0.307143,0,0,71.5288,0.39411,0,0.342857,0.657143,0,0,2,176,109.7,0.105714
Green_YC310_Pro_5B88_260928_014119.csv,2,177,32,27,71664.1,0.246657,6.97166e+06,0.794332,33.89,-0.02,0.648333,-0.00333367,0.0569697,0.407926,0.0038268,0.592074,0.636656,0.374201,0.314601,0.237724,0.254633,0.269099,0.288247,2026-09-28 01:41:58,133,6.8,0.342857,0,0,69.7674,0.372092,0,0.151515,0.848485,0,0,2,177,109.7,0.109091
Green_YC310_Pro_5B88_260928_014339.csv,2,178,33,27,69522.3,0.238089,7.16377e+06,0.832755,33.87,-0.02,0.645,-0.003333,0.055625,0.384741,-0.0013447,0.615259,0.63499,0.374576,0.314976,0.245932,0.251849,0.268861,0.290794,2026-09-28 01:44:17,139,6.8,0.342857,0,0,68.5121,0.356401,0,0.21875,0.78125,0,0,2,178,109.7,0.103529
Green_YC310_Pro_5B88_260928_014600.csv,2,179,33,30,75338.2,0.261353,7.31369e+06,0.862739,33.83,-0.04,0.638333,-0.00666667,0.0541176,0.358753,-0.00150735,0.641247,0.633324,0.374951,0.315351,0.25305,0.248244,0.269291,0.294828,2026-09-28 01:46:40,143,6.8,0.342857,0,0,69.9153,0.373941,0,0.294118,0.705882,0,0,2,179,109.7,0.102353
Green_YC310_Pro_5B88_260928_014818.csv,2,180,33,20,77002.7,0.268011,7.45377e+06,0.890753,33.8,-0.03,0.633333,-0.00499967,0.0535294,0.348611,-0.000588188,0.651389,0.635288,0.375656,0.316056,0.247326,0.247876,0.271445,0.297349,2026-09-28 01:48:57,137,6.8,0.342857,0,0,71.4801,0.393501,0,0.323529,0.676471,0,0,2,180,109.7,0.102941
Green_YC310_Pro_5B88_260928_015038.csv,2,181,39,33,65229.3,0.220917,7.81889e+06,0.963778,33.76,-0.04,0.626667,-0.00666633,0.0545,0.365345,0.0009706,0.634655,0.630746,0.414752,0.355152,0.302082,0.234212,0.27324,0.31281,2026-09-28 01:51:44,167,6.8,0.342857,0,0,82.2207,0.527759,0,0.275,0.725,0,0,2,181,109.7,0.098
Green_YC310_Pro_5B88_260928_015257.csv,2,182,28,6,134621,0.498484,5.71033e+06,0.542066,33.77,0.01,0.628333,0.00166633,0.057037,0.409087,0.00253704,0.590913,0.618461,0.462863,0.403262,0.341184,0.22648,0.269726,0.317027,2026-09-28 01:53:37,113,6.8,0.342857,0,0,65.8824,0.32353,0,0.259259,0.666667,0.037037,0.037037,2,182,109.7,0.104615
Green_YC310_Pro_5B88_260928_015514.csv,2,183,41,24,46713,0.146852,5.41001e+06,0.482002,33.8,0.03,0.633333,0.00500033,0.055122,0.376068,-0.00191505,0.623932,0.618535,0.45222,0.392619,0.245881,0.248181,0.267949,0.293549,2026-09-28 01:55:52,135,6.6,0.328571,0,0,85.5355,0.569194,0,0.243902,0.756098,0,0,2,183,109.7,0.1
Green_YC310_Pro_5B88_260928_015735.csv,2,184,36,29,57833.7,0.191335,5.53513e+06,0.507026,33.78,-0.02,0.63,-0.003333,0.0566667,0.402701,0.00154467,0.597299,0.632205,0.442908,0.383307,0.170811,0.262982,0.275555,0.286353,2026-09-28 01:58:18,146,6.6,0.328571,0,0,77.4749,0.468436,0,0.166667,0.833333,0,0,2,184,109.7,0.112571
Green_YC310_Pro_5B88_260928_015955.csv,2,185,36,31,48430.9,0.153723,5.78602e+06,0.557204,33.8,0.02,0.633333,0.00333333,0.0524324,0.329697,-0.00423427,0.670303,0.642071,0.464304,0.393174,0.170345,0.264132,0.282058,0.291707,2026-09-28 02:00:37,139,6.6,0.328571,0,0,77.4194,0.467742,0,0.378378,0.621622,0,0,2,185,109.7,0.101667
Green_YC310_Pro_5B88_260928_020210.csv,2,186,36,32,55649.8,0.182599,5.9387e+06,0.587739,33.91,0.11,0.651667,0.0183337,0.0551351,0.376295,0.00270274,0.623705,0.623705,0.460171,0.389041,0.182599,0.267325,0.267789,0.274245,2026-09-28 02:02:48,131,6.6,0.328571,0,0,76.8137,0.460171,0,0.27027,0.702703,0.027027,0,2,186,109.7,0.107222
