Sheet Name,Segment,Index,total_beat_count,Sel_Min,diff,diff_n,mean,mean_n,temp,temp_raw_diff,temp_n,temp_diff,rise_low,rise_low_n,rise_low_diff,rise_low_n_inv,rise_low_n_inv_center,HR_n_center,HR_n_center_lim,diff_n_center,diff_anker,rl_inv_corr,inv_corr,datetime,time_gap_seconds,CGM,CGM_n,SMBG,SMBG_n,HR,HR_n,r20,r40,r60,r80,r100,time_gap_state,time_gap_slot,time_gap_offset_s,rise_low_50
Green_YC310_Pro_5B88_261009_151121.csv,1,1,21,10,12872.1,0.0114885,5.70231e+06,0.540463,32.52,0,0.42,0,0.0453395,0.207406,0,0.792594,0.792594,0.377926,0.377926,0.0114885,0.230414,0.173924,0.299998,2026-10-09 15:11:21,0,5.2,0.228571,5,0.214286,70.2341,0.377926,0,0.318182,0.681818,0,0,0,-1,-1,0.1125
Green_YC310_Pro_5B88_261009_151354.csv,1,2,20,17,28646.4,0.0745857,5.445e+06,0.489,32.56,0.04,0.426667,0.00666667,0.0617563,0.490453,0.0164168,0.509547,0.65107,0.340888,0.340888,0.0535533,0.223633,0.173924,0.250283,2026-10-09 15:13:54,153,5.2,0.228571,0,0,65.7895,0.322369,0,0,0.571429,0.428571,0,0,-1,-1,0.144211
Green_YC310_Pro_5B88_261009_151620.csv,1,3,20,9,34545.4,0.0981814,4.96991e+06,0.393981,32.55,-0.01,0.425,-0.001667,0.0557278,0.386514,-0.00602849,0.613486,0.65107,0.322369,0.322369,0.0745857,0.218666,0.173924,0.250283,2026-10-09 15:16:20,146,5.2,0.228571,0,0,64.1026,0.301282,0,0.0555556,0.777778,0.0555556,0.111111,0,-1,-1,0.124615
Green_YC310_Pro_5B88_261009_151850.csv,1,4,14,18,67098.1,0.228393,5.53877e+06,0.507753,32.5,-0.05,0.416667,-0.00833333,0.0511837,0.308166,-0.00454415,0.691834,0.65107,0.322369,0.322369,0.120254,0.206396,0.174091,0.250283,2026-10-09 15:18:50,150,5.2,0.228571,0,0,66.3507,0.329384,0,0.266667,0.533333,0.2,0,0,-1,-1,0.0888889
Green_YC310_Pro_5B88_261009_152120.csv,1,5,23,7,15451.4,0.0218056,5.03752e+06,0.407504,32.35,-0.15,0.391667,-0.0250003,0.0491365,0.272871,-0.0020472,0.727129,0.680358,0.36418,0.351656,0.0814428,0.206709,0.204425,0.252079,2026-10-09 15:21:20,150,5.2,0.228571,0,0,78.5877,0.482346,0.0526316,0.210526,0.736842,0,0,0,-1,-1,0.132857
Green_YC310_Pro_5B88_261009_152349.csv,1,6,23,10,33789.2,0.095157,5.72937e+06,0.545873,32.28,-0.07,0.38,-0.011667,0.0486736,0.26489,-0.000462886,0.73511,0.738933,0.359503,0.34698,0.132921,0.19216,0.264341,0.226766,2026-10-09 15:23:49,149,5.2,0.228571,0,0,75.8242,0.447803,0,0.111111,0.888889,0,0,0,-1,-1,0.118667
Green_YC310_Pro_5B88_261009_152621.csv,1,7,18,2,67254.7,0.229019,5.47434e+06,0.494867,32.21,-0.07,0.368333,-0.0116667,0.0513426,0.310906,0.00266897,0.689094,0.628996,0.354827,0.342303,0.132877,0.188491,0.156005,0.261537,2026-10-09 15:26:21,152,5.1,0.221429,0,0,63.306,0.291325,0,0.142857,0.571429,0.285714,0,0,-1,-1,0.1825
Green_YC310_Pro_5B88_261009_152852.csv,1,8,18,4,25324.8,0.0612992,4.71537e+06,0.343074,32.25,0.04,0.375,0.006667,0.0644685,0.537215,0.0131259,0.462785,0.628815,0.356667,0.344143,0.132833,0.190602,0.156992,0.204881,2026-10-09 15:28:52,151,5.1,0.221429,0,0,60.9481,0.261851,0,0,0.384615,0.615385,0,0,-1,-1,0.128571
Green_YC310_Pro_5B88_261009_153123.csv,1,9,20,6,19161.9,0.0366475,4.50124e+06,0.300249,32.2,-0.05,0.366667,-0.00833333,0.054656,0.368034,-0.00981253,0.631966,0.628634,0.358506,0.345982,0.0737756,0.200445,0.158139,0.223875,2026-10-09 15:31:23,151,5.3,0.235714,0,0,67.0391,0.337989,0,0.157895,0.631579,0.157895,0.0526316,0,-1,-1,0.116923
Green_YC310_Pro_5B88_261009_153350.csv,1,10,23,21,22961.5,0.051846,5.36342e+06,0.472684,32.25,0.05,0.375,0.008333,0.0452301,0.205518,-0.00942593,0.794482,0.709039,0.471803,0.426387,0.0413679,0.209916,0.239413,0.206217,2026-10-09 15:33:50,147,5.3,0.235714,0,0,78.0543,0.475679,0,0.333333,0.666667,0,0,0,-1,-1,0.106667
Green_YC310_Pro_5B88_261009_153620.csv,1,11,27,18,16283,0.0251321,5.34526e+06,0.469053,32.2,-0.05,0.366667,-0.00833333,0.0453754,0.208024,0.000145302,0.791976,0.789444,0.48688,0.441465,0.0443462,0.20666,0.320882,0.206217,2026-10-09 15:36:20,150,5.1,0.221429,0,0,88.1393,0.601741,0,0.230769,0.769231,0,0,0,-1,-1,0.1048
Green_YC310_Pro_5B88_261009_153851.csv,1,12,22,2,28818.7,0.0752747,4.60302e+06,0.320605,32.23,0.03,0.371667,0.00499967,0.0459613,0.218127,0.000585948,0.781873,0.764298,0.482031,0.436615,0.0574162,0.205476,0.296494,0.206217,2026-10-09 15:38:51,151,5.1,0.221429,0,0,70.9677,0.387096,0,0.428571,0.5,0.0714286,0,0,-1,-1,0.095
Green_YC310_Pro_5B88_261009_154121.csv,1,13,25,11,23495.8,0.0539832,5.05255e+06,0.41051,32.21,-0.02,0.368333,-0.00333367,0.0496054,0.280954,0.00364405,0.719046,0.768539,0.491448,0.440856,0.0645992,0.202909,0.301521,0.338654,2026-10-09 15:41:21,150,5.4,0.242857,0,0,84.1751,0.552189,0,0.0869565,0.913043,0,0,0,-1,-1,0.124211
Green_YC310_Pro_5B88_261009_154354.csv,1,14,26,21,24997.1,0.0599884,5.46491e+06,0.492981,32.29,0.08,0.381667,0.0133337,0.0450178,0.201858,-0.00458765,0.798142,0.77278,0.53506,0.445097,0.0645398,0.207125,0.305974,0.43777,2026-10-09 15:43:54,153,5.2,0.228571,0,0,83.3333,0.541666,0,0.333333,0.666667,0,0,0,-1,-1,0.104615
Green_YC310_Pro_5B88_261009_154621.csv,1,15,25,18,29911.9,0.0796477,5.22664e+06,0.445328,32.5,0.21,0.416667,0.0349997,0.0433721,0.173485,-0.00164568,0.826515,0.755174,0.509358,0.427491,0.121542,0.206123,0.287293,0.454761,2026-10-09 15:46:21,147,5.2,0.228571,0,0,80.9061,0.511326,0,0.333333,0.666667,0,0,0,-1,-1,0.106364
Green_YC310_Pro_5B88_261009_154850.csv,1,16,24,23,33587.3,0.0943491,5.26492e+06,0.452983,32.66,0.16,0.443333,0.0266663,0.0453895,0.208267,0.00201737,0.791733,0.737567,0.487921,0.409884,0.121033,0.214639,0.267781,0.416069,2026-10-09 15:48:50,149,5.6,0.257143,0,0,78.0065,0.475081,0,0.2,0.8,0,0,0,-1,-1,0.1072
Green_YC310_Pro_5B88_261009_155122.csv,1,17,24,6,57275.2,0.189101,5.2508e+06,0.45016,32.82,0.16,0.47,0.026667,0.0536901,0.351381,0.00830058,0.648619,0.720102,0.467542,0.392419,0.146911,0.217582,0.24768,0.390754,2026-10-09 15:51:22,152,5.6,0.257143,0,0,78.346,0.479325,0,0.217391,0.565217,0.0869565,0.130435,0,-1,-1,0.11
Green_YC310_Pro_5B88_261009_155349.csv,1,18,22,15,42649.8,0.130599,5.35608e+06,0.471215,33,0.18,0.5,0.03,0.0496805,0.282251,-0.00400956,0.717749,0.702638,0.455274,0.380152,0.150541,0.226275,0.226816,0.344799,2026-10-09 15:53:49,147,6.1,0.292857,0,0,74.9149,0.436436,0,0.130435,0.782609,0.0434783,0.0434783,0,-1,-1,0.106
Green_YC310_Pro_5B88_261009_155621.csv,1,19,29,10,43046.1,0.132184,5.36875e+06,0.473751,33.15,0.15,0.525,0.025,0.0483004,0.258455,-0.00138014,0.741545,0.750689,0.450062,0.374939,0.131922,0.238089,0.270975,0.340662,2026-10-09 15:56:21,152,6.1,0.292857,0,0,98.6395,0.732994,0,0.344828,0.586207,0.0689655,0,0,-1,-1,0.088
Green_YC310_Pro_5B88_261009_155851.csv,1,20,23,17,43245.6,0.132983,5.31627e+06,0.463253,33.19,0.04,0.531667,0.00666667,0.0453292,0.207228,-0.00297117,0.792772,0.776106,0.466488,0.391365,0.137437,0.239026,0.292727,0.340511,2026-10-09 15:58:51,150,6.1,0.292857,0,0,77.095,0.463687,0,0.318182,0.681818,0,0,0,-1,-1,0.105455
Green_YC310_Pro_5B88_261009_160121.csv,1,21,23,16,46786,0.147144,5.27519e+06,0.455038,33.3,0.11,0.55,0.018333,0.0457882,0.215142,0.000459008,0.784858,0.796398,0.464598,0.389476,0.139298,0.244413,0.309134,0.340368,2026-10-09 16:01:21,150,6.1,0.292857,0,0,78.8571,0.485714,0,0.173913,0.826087,0,0,0,-1,-1,0.104167
Green_YC310_Pro_5B88_261009_160350.csv,1,22,23,20,43328.3,0.133313,5.31549e+06,0.463098,33.4,0.1,0.566667,0.0166667,0.0437769,0.180463,-0.00201132,0.819537,0.811563,0.467808,0.392685,0.145335,0.248393,0.32028,0.348426,2026-10-09 16:03:50,149,8.4,0.457143,0,0,75.3275,0.441594,0,0.291667,0.708333,0,0,0,-1,-1,0.103478
Green_YC310_Pro_5B88_261009_160620.csv,1,23,24,10,51666.7,0.166667,5.11857e+06,0.423714,33.43,0.03,0.571667,0.00499967,0.0426905,0.161732,-0.00108642,0.838268,0.816293,0.476116,0.397415,0.155549,0.247813,0.321293,0.362256,2026-10-09 16:06:20,150,8.4,0.457143,0,0,79.4702,0.493378,0.0416667,0.333333,0.625,0,0,0,-1,-1,0.104
Green_YC310_Pro_5B88_261009_160851.csv,1,24,21,2,72194.3,0.248777,4.87534e+06,0.375068,33.43,0,0.571667,-3.33333e-07,0.0613357,0.483201,0.0186452,0.516799,0.821023,0.50986,0.402145,0.156946,0.247518,0.322753,0.352917,2026-10-09 16:08:51,151,8.4,0.457143,0,0,68.7773,0.359716,0,0.117647,0.470588,0.235294,0.176471,0,-1,-1,0.117778
Green_YC310_Pro_5B88_261009_161120.csv,1,25,25,17,44376,0.137504,5.25781e+06,0.451563,33.39,-0.04,0.565,-0.006667,0.0446047,0.194736,-0.016731,0.805264,0.806161,0.509255,0.401541,0.149028,0.247088,0.305252,0.352444,2026-10-09 16:11:20,149,8.4,0.457143,0,0,83.426,0.542825,0,0.28,0.72,0,0,0,-1,-1,0.1032
Green_YC310_Pro_5B88_261009_161351.csv,1,26,24,19,44789.6,0.139158,5.34217e+06,0.468434,33.34,-0.05,0.556667,-0.00833333,0.0452765,0.206319,0.000671794,0.793681,0.797291,0.494394,0.392671,0.141111,0.246133,0.294361,0.347293,2026-10-09 16:13:51,151,8.4,0.457143,0,0,78.0065,0.475081,0,0.28,0.68,0.04,0,0,-1,-1,0.101739
Green_YC310_Pro_5B88_261009_161623.csv,1,27,23,18,46667.5,0.14667,5.40931e+06,0.481862,33.37,0.03,0.561667,0.00499967,0.0453202,0.207073,4.37468e-05,0.792927,0.779631,0.471816,0.375011,0.176955,0.24014,0.274742,0.340953,2026-10-09 16:16:23,152,8.7,0.478571,0,0,78.7671,0.484589,0,0.375,0.583333,0.0416667,0,0,-1,-1,0.10087
Green_YC310_Pro_5B88_261009_161851.csv,1,28,24,14,52022.3,0.168089,5.39576e+06,0.479153,33.41,0.04,0.568333,0.00666633,0.0476776,0.247716,0.00235736,0.752284,0.768717,0.455778,0.364097,0.177055,0.242221,0.261864,0.314664,2026-10-09 16:18:51,148,8.7,0.478571,0,0,77.9221,0.474026,0,0.166667,0.75,0.0833333,0,0,-1,-1,0.105263
Green_YC310_Pro_5B88_261009_162121.csv,1,29,22,9,64101.7,0.216407,5.30264e+06,0.460528,33.4,-0.01,0.566667,-0.00166633,0.0473032,0.241262,-0.000374386,0.758738,0.757803,0.457293,0.365613,0.183544,0.240325,0.249282,0.291775,2026-10-09 16:21:21,150,8.7,0.478571,0,0,74.1573,0.426966,0,0.35,0.6,0.05,0,0,-1,-1,0.0989474
Green_YC310_Pro_5B88_261009_162350.csv,1,30,23,16,49292.5,0.15717,5.30255e+06,0.46051,33.41,0.01,0.568333,0.00166633,0.0470916,0.237613,-0.000211638,0.762387,0.770012,0.458809,0.367128,0.182098,0.241156,0.259963,0.272625,2026-10-09 16:23:50,149,8.6,0.471429,0,0,77.3543,0.466929,0,0.25,0.75,0,0,0,-1,-1,0.100833
Green_YC310_Pro_5B88_261009_162622.csv,1,31,24,10,59411.2,0.197645,5.32732e+06,0.465465,33.43,0.02,0.571667,0.00333367,0.0455532,0.211089,-0.00153841,0.788911,0.789136,0.494946,0.386252,0.169595,0.244847,0.277622,0.267497,2026-10-09 16:26:22,152,8.6,0.471429,0,0,78.6026,0.482532,0,0.391304,0.521739,0.0869565,0,0,-1,-1,0.098
Green_YC310_Pro_5B88_261009_162852.csv,1,32,24,20,45399.3,0.141597,5.35172e+06,0.470343,33.46,0.03,0.576667,0.00499967,0.0439756,0.18389,-0.00157758,0.81611,0.816862,0.521955,0.413262,0.153971,0.249723,0.303879,0.2719,2026-10-09 16:28:52,150,8.6,0.471429,0,0,81.6327,0.520409,0,0.28,0.72,0,0,0,-1,-1,0.0952
Green_YC310_Pro_5B88_261009_163121.csv,1,33,25,23,37574.6,0.110298,5.22362e+06,0.444723,33.45,-0.01,0.575,-0.001667,0.0422672,0.154435,-0.00170837,0.845565,0.802776,0.540942,0.432249,0.148834,0.250282,0.288561,0.291967,2026-10-09 16:31:21,149,8.5,0.464286,0,0,85.034,0.562925,0,0.576923,0.423077,0,0,0,-1,-1,0.0892308
Green_YC310_Pro_5B88_261009_163353.csv,1,34,23,17,55558,0.182232,5.38619e+06,0.477237,33.47,0.02,0.578333,0.00333333,0.0446734,0.195921,0.00240621,0.804079,0.78869,0.559929,0.451236,0.148664,0.251369,0.27327,0.303419,2026-10-09 16:33:53,152,8.4,0.457143,0,0,76.5816,0.45727,0,0.25,0.75,0,0,0,-1,-1,0.0965217
Green_YC310_Pro_5B88_261009_163620.csv,1,35,25,8,50287.8,0.161151,5.21317e+06,0.442634,33.43,-0.04,0.571667,-0.00666633,0.0488647,0.268184,0.00419127,0.731816,0.787144,0.547899,0.44969,0.153462,0.248254,0.270903,0.303019,2026-10-09 16:36:20,147,8.4,0.457143,0,0,84.5547,0.556934,0,0.32,0.52,0.16,0,0,-1,-1,0.114118
Green_YC310_Pro_5B88_261009_163852.csv,1,36,25,16,39250.8,0.117003,5.34148e+06,0.468296,33.4,-0.03,0.566667,-0.00500033,0.0425364,0.159075,-0.00632833,0.840925,0.794608,0.543493,0.445283,0.0995132,0.258069,0.277826,0.316002,2026-10-09 16:38:52,152,8.3,0.45,0,0,82.1468,0.526835,0.0384615,0.192308,0.769231,0,0,0,-1,-1,0.1008
Green_YC310_Pro_5B88_261009_164122.csv,1,37,25,6,33331.2,0.0933249,5.7711e+06,0.55422,33.36,-0.04,0.56,-0.006667,0.0437258,0.179583,0.00118943,0.820417,0.811083,0.540605,0.442395,0.0757075,0.260994,0.294064,0.324729,2026-10-09 16:41:22,150,8.2,0.442857,0,0,84.4595,0.555744,0,0.47619,0.47619,0.047619,0,0,-1,-1,0.08
Green_YC310_Pro_5B88_261009_164351.csv,1,38,25,16,14198.6,0.0167945,5.05765e+06,0.41153,33.25,-0.11,0.541667,-0.0183333,0.0465394,0.228093,0.00281358,0.771907,0.776543,0.539236,0.441026,0.0715979,0.256082,0.267727,0.312218,2026-10-09 16:43:51,149,8.1,0.435714,0,0,84.2697,0.553371,0,0.28,0.72,0,0,0,-1,-1,0.0976
Green_YC310_Pro_5B88_261009_164620.csv,1,39,24,2,33693,0.0947722,4.99398e+06,0.398796,33.19,-0.06,0.531667,-0.0100003,0.0485464,0.262696,0.00200696,0.737304,0.769292,0.538529,0.440319,0.0674882,0.253797,0.260915,0.312706,2026-10-09 16:46:20,149,7.7,0.407143,0,0,81.8182,0.522728,0,0.466667,0.333333,0.2,0,0,-1,-1,0.0866667
Green_YC310_Pro_5B88_261009_164850.csv,1,40,24,7,39545.5,0.118182,5.54599e+06,0.509198,33.12,-0.07,0.52,-0.011667,0.0465557,0.228375,-0.00199065,0.771625,0.76204,0.537822,0.439612,0.0862224,0.246162,0.254446,0.332025,2026-10-09 16:48:50,150,6.9,0.35,0,0,82.5688,0.53211,0,0.315789,0.684211,0,0,0,-1,-1,0.0890909
Green_YC310_Pro_5B88_261009_165120.csv,1,41,26,11,28249.3,0.0729971,5.55532e+06,0.511063,33.07,-0.05,0.511667,-0.00833333,0.0456769,0.213223,-0.000878753,0.786777,0.735677,0.538113,0.439903,0.105838,0.239393,0.229046,0.33373,2026-10-09 16:51:20,150,6.8,0.342857,0,0,84.2333,0.552916,0,0.384615,0.615385,0,0,0,-1,-1,0.0984
Green_YC310_Pro_5B88_261009_165351.csv,1,42,23,4,49794.2,0.159177,5.37627e+06,0.475253,33.02,-0.05,0.503333,-0.00833367,0.0531337,0.341787,0.00745676,0.658213,0.729222,0.538404,0.440194,0.123761,0.23298,0.223717,0.291351,2026-10-09 16:53:51,151,6.3,0.307143,0,0,76.5816,0.45727,0,0.25,0.6,0.1,0.05,0,-1,-1,0.09
Green_YC310_Pro_5B88_261009_165633.csv,1,43,24,15,35923.5,0.103694,5.81091e+06,0.562182,32.96,-0.06,0.493333,-0.00999967,0.0459629,0.218154,-0.0071708,0.781846,0.742676,0.505815,0.407605,0.119725,0.23068,0.238499,0.300182,2026-10-09 16:56:33,162,6.1,0.292857,0,0,81.9113,0.523891,0,0.25,0.75,0,0,0,-1,-1,0.105714
Green_YC310_Pro_5B88_261009_165850.csv,1,44,23,19,38083.9,0.112336,5.87212e+06,0.574424,32.93,-0.03,0.488333,-0.00499967,0.0433359,0.17286,-0.00262703,0.82714,0.748065,0.472899,0.374689,0.103886,0.232448,0.245215,0.321865,2026-10-09 16:58:50,137,5.4,0.242857,0,0,76.412,0.45515,0,0.458333,0.541667,0,0,0,-1,-1,0.100833
Green_YC310_Pro_5B88_261009_170120.csv,1,45,22,16,31794.4,0.0871774,4.7458e+06,0.34916,32.98,0.05,0.496667,0.00833367,0.0454122,0.208659,0.00207634,0.791341,0.753454,0.426374,0.328164,0.114105,0.232918,0.251452,0.316381,2026-10-09 17:01:20,150,4.9,0.207143,0,0,74.4081,0.430101,0,0.26087,0.695652,0.0434783,0,0,-1,-1,0.103636
Green_YC310_Pro_5B88_261009_170353.csv,1,46,21,3,52432.1,0.169729,4.66582e+06,0.333163,33.03,0.05,0.505,0.008333,0.0518834,0.320231,0.00647122,0.679769,0.750696,0.405618,0.325405,0.130405,0.232103,0.24912,0.272221,2026-10-09 17:03:53,153,4.7,0.192857,0,0,71.5096,0.39387,0,0.315789,0.421053,0.157895,0.105263,0,-1,-1,0.0969231
Green_YC310_Pro_5B88_261009_170623.csv,1,47,25,9,41798.8,0.127195,4.62098e+06,0.324197,33.05,0.02,0.508333,0.00333333,0.0459539,0.217998,-0.00592949,0.782002,0.747937,0.429849,0.349637,0.134309,0.23233,0.246598,0.311364,2026-10-09 17:06:23,150,4.8,0.2,0,0,83.8926,0.548658,0,0.285714,0.714286,0,0,0,-1,-1,0.10381
Green_YC310_Pro_5B88_261009_170851.csv,1,48,22,17,34722.4,0.0988898,4.76495e+06,0.352989,33.07,0.02,0.511667,0.00333367,0.0439759,0.183894,-0.00197804,0.816106,0.736851,0.452105,0.371893,0.118448,0.23673,0.235582,0.298912,2026-10-09 17:08:51,148,4.9,0.207143,0,0,71.3514,0.391892,0,0.304348,0.695652,0,0,0,-1,-1,0.101739
Green_YC310_Pro_5B88_261009_171120.csv,1,49,23,22,40535.9,0.122144,4.83772e+06,0.367544,33.13,0.06,0.521667,0.00999967,0.0454945,0.210077,0.00151859,0.789923,0.725765,0.466725,0.386513,0.115174,0.240574,0.22418,0.284133,2026-10-09 17:11:20,149,5,0.214286,0,0,74.6753,0.433441,0,0.25,0.75,0,0,0,-1,-1,0.105217
Green_YC310_Pro_5B88_261009_171351.csv,1,50,24,9,39379.6,0.117518,4.4381e+06,0.287619,33.18,0.05,0.53,0.008333,0.0544554,0.364576,0.00896092,0.635424,0.713111,0.468034,0.387822,0.130138,0.240042,0.210932,0.254412,2026-10-09 17:13:51,151,5.1,0.221429,0,0,80.7175,0.508969,0,0.391304,0.304348,0.26087,0.0434783,0,-1,-1,0.135385
Green_YC310_Pro_5B88_261009_171619.csv,1,51,22,9,51046.4,0.164185,4.43108e+06,0.286216,33.17,-0.01,0.528333,-0.00166667,0.0489755,0.270095,-0.00547992,0.729905,0.700457,0.461037,0.380825,0.150754,0.235163,0.197799,0.265156,2026-10-09 17:16:19,148,5.8,0.271429,0,0,73.6607,0.420759,0,0.238095,0.714286,0.047619,0,0,-1,-1,0.105882
Green_YC310_Pro_5B88_261009_171851.csv,1,52,23,5,55997.2,0.183989,4.49129e+06,0.298258,33.12,-0.05,0.52,-0.008333,0.0469117,0.234511,-0.00206384,0.765489,0.747697,0.457211,0.376999,0.174087,0.227608,0.244903,0.254437,2026-10-09 17:18:51,152,6,0.285714,0,0,79.4931,0.493664,0,0.5,0.375,0.125,0,0,-1,-1,0.0872727
