Sheet Name,Segment,Index,total_beat_count,Sel_Min,diff,diff_n,mean,mean_n,temp,temp_raw_diff,temp_n,temp_diff,rise_low,rise_low_n,rise_low_diff,rise_low_n_inv,rise_low_n_inv_center,HR_n_center,HR_n_center_lim,diff_n_center,diff_anker,rl_inv_corr,inv_corr,datetime,time_gap_seconds,CGM,CGM_n,SMBG,SMBG_n,HR,HR_n,r20,r40,r60,r80,r100,time_gap_state,time_gap_slot,time_gap_offset_s,rise_low_50
Green_YC310_Pro_5B88_261001_092458.csv,2,1,36,2,32982.2,0.0919288,5.22561e+06,0.445122,32.28,0,0.38,0,0.0541042,0.358521,0,0.641479,0.641479,0.457446,0.457446,0.0919288,0.200816,0.25,0.25,2026-10-01 09:24:58,0,6.4,0.314286,0,0,76.5957,0.457446,0,0.25,0.5,0.208333,0.0416667,0,-1,-1,0.121429
Green_YC310_Pro_5B88_261001_092728.csv,2,2,38,8,37116.2,0.108465,5.29523e+06,0.459046,32.49,0.21,0.415,0.035,0.0451606,0.20432,-0.00894362,0.79568,0.722109,0.524711,0.524711,0.0884322,0.21259,0.25,0.25,2026-10-01 09:27:28,150,6.1,0.292857,0,0,83.4553,0.543191,0.05,0.3,0.6,0.05,0,0,-1,-1,0.138462
Green_YC310_Pro_5B88_261001_092958.csv,2,3,41,9,21217.5,0.0448698,5.35151e+06,0.470303,32.7,0.21,0.45,0.035,0.0466814,0.230541,0.00152077,0.769459,0.720021,0.529031,0.529031,0.0781091,0.225805,0.25,0.25,2026-10-01 09:29:58,150,6.1,0.292857,0,0,87.358,0.591975,0,0.382353,0.558824,0.0588235,0,0,-1,-1,0.101538
Green_YC310_Pro_5B88_261001_093227.csv,2,4,37,11,34160.8,0.0966431,5.16278e+06,0.432556,32.73,0.03,0.455,0.005,0.0540245,0.357146,0.00734309,0.642854,0.717932,0.533352,0.533352,0.0809924,0.226772,0.25,0.25,2026-10-01 09:32:27,149,6.2,0.3,0,0,80.0288,0.50036,0,0.115385,0.730769,0.115385,0.0384615,0,-1,-1,0.105
Green_YC310_Pro_5B88_261001_093458.csv,2,5,36,5,39278.7,0.117115,5.0742e+06,0.41484,32.81,0.08,0.468333,0.0133333,0.0524664,0.330283,-0.00155807,0.669717,0.722821,0.527452,0.527452,0.0942942,0.228168,0.25,0.25,2026-10-01 09:34:58,151,6.3,0.307143,0,0,77.9783,0.474729,0,0.111111,0.740741,0.148148,0,0,-1,-1,0.109524
Green_YC310_Pro_5B88_261001_093729.csv,2,6,39,16,31193.8,0.0847753,5.1131e+06,0.422619,32.87,0.06,0.478333,0.0100003,0.0461486,0.221355,-0.00631782,0.778645,0.716691,0.521553,0.521553,0.0998955,0.230138,0.25,0.25,2026-10-01 09:37:29,151,6.3,0.307143,0,0,82.0477,0.525596,0,0.322581,0.645161,0.0322581,0,0,-1,-1,0.117241
Green_YC310_Pro_5B88_261001_094002.csv,2,7,40,7,32910.1,0.0916405,5.23307e+06,0.446613,32.89,0.02,0.481667,0.00333367,0.0542041,0.360243,0.00805547,0.639757,0.708376,0.528422,0.528422,0.0977961,0.231632,0.25,0.25,2026-10-01 09:40:02,153,6.2,0.3,0,0,85.4701,0.568376,0,0.121212,0.69697,0.181818,0,0,-1,-1,0.114815
Green_YC310_Pro_5B88_261001_094230.csv,2,8,37,5,37704.2,0.110817,5.11529e+06,0.423058,32.88,-0.01,0.48,-0.001667,0.0467795,0.232232,-0.00742462,0.767768,0.706727,0.524231,0.526772,0.0894709,0.232864,0.248582,0.248582,2026-10-01 09:42:30,148,6.2,0.3,0,0,79.627,0.495337,0.047619,0.285714,0.666667,0,0,0,-1,-1,0.102667
Green_YC310_Pro_5B88_261001_094501.csv,2,9,38,23,24949.9,0.0597995,5.22859e+06,0.445718,33,0.12,0.5,0.02,0.0464356,0.226304,-0.000343864,0.773696,0.748993,0.506963,0.509505,0.077062,0.241791,0.260609,0.260609,2026-10-01 09:45:01,151,6,0.285714,0,0,83.0299,0.537874,0,0.0833333,0.888889,0.0277778,0,0,-1,-1,0.114444
Green_YC310_Pro_5B88_261001_094727.csv,2,10,36,28,29458.1,0.0778322,5.20483e+06,0.440966,33.21,0.21,0.535,0.035,0.0468497,0.233443,0.00041407,0.766557,0.77946,0.511308,0.513849,0.0719343,0.253909,0.262123,0.262123,2026-10-01 09:47:27,146,5.8,0.271429,0,0,76.5415,0.456769,0,0.027027,0.972973,0,0,0,-1,-1,0.112432
Green_YC310_Pro_5B88_261001_095000.csv,2,11,37,35,28068.3,0.0722733,5.24705e+06,0.44941,33.34,0.13,0.556667,0.0216667,0.0442703,0.188971,-0.0025794,0.811029,0.785103,0.539282,0.519492,0.0755784,0.259971,0.262337,0.262337,2026-10-01 09:50:00,153,5.7,0.264286,0,0,78.169,0.477112,0,0.210526,0.789474,0,0,0,-1,-1,0.104737
Green_YC310_Pro_5B88_261001_095228.csv,2,12,42,9,29339,0.0773559,5.18077e+06,0.436155,33.39,0.05,0.565,0.008333,0.0435823,0.177109,-0.000687995,0.822891,0.777722,0.562093,0.542304,0.0766297,0.262376,0.26099,0.26099,2026-10-01 09:52:28,148,5.6,0.257143,0,0,89.7436,0.621795,0,0.4,0.6,0,0,0,-1,-1,0.098
Green_YC310_Pro_5B88_261001_095459.csv,2,13,41,17,30065,0.0802598,5.21921e+06,0.443843,33.45,0.06,0.575,0.01,0.0481338,0.255584,0.00455154,0.744416,0.768671,0.584905,0.565115,0.0850199,0.263757,0.257544,0.257544,2026-10-01 09:54:59,151,5.5,0.25,0,0,87.358,0.591975,0,0.1875,0.78125,0.03125,0,0,-1,-1,0.107143
Green_YC310_Pro_5B88_261001_095727.csv,2,14,40,16,34361,0.0974441,5.38378e+06,0.476755,33.58,0.13,0.596667,0.0216667,0.0537163,0.351832,0.00558248,0.648168,0.766049,0.500976,0.562494,0.089378,0.269669,0.22771,0.22771,2026-10-01 09:57:27,148,5.5,0.25,0,0,83.2755,0.540944,0,0.147059,0.617647,0.176471,0.0588235,0,-1,-1,0.105
Green_YC310_Pro_5B88_261001_095958.csv,2,15,36,27,31417.5,0.0856701,5.43047e+06,0.486094,33.61,0.03,0.601667,0.00499967,0.0458706,0.216561,-0.00784575,0.783439,0.769859,0.457715,0.519233,0.0952656,0.270002,0.222576,0.222576,2026-10-01 09:59:58,151,5.6,0.257143,0,0,76.1636,0.452045,0,0.135135,0.864865,0,0,0,-1,-1,0.111111
Green_YC310_Pro_5B88_261001_100228.csv,2,16,33,27,38069.4,0.112278,5.38038e+06,0.476076,33.63,0.02,0.605,0.003333,0.047471,0.244156,0.00160043,0.755844,0.781745,0.44369,0.505209,0.0990288,0.270258,0.229702,0.229702,2026-10-01 10:02:28,150,5.6,0.257143,0,0,70.4125,0.380156,0,0.212121,0.787879,0,0,0,-1,-1,0.112353
Green_YC310_Pro_5B88_261001_100458.csv,2,17,37,14,34021.6,0.0960866,5.34304e+06,0.468609,33.66,0.03,0.61,0.005,0.0437771,0.180467,-0.00369394,0.819533,0.798722,0.445956,0.507474,0.0991383,0.271811,0.238741,0.238741,2026-10-01 10:04:58,150,5.6,0.257143,0,0,79.456,0.4932,0,0.342105,0.657895,0,0,0,-1,-1,0.0973684
Green_YC310_Pro_5B88_261001_100729.csv,2,18,34,30,32262.6,0.0890504,5.39545e+06,0.47909,33.66,0,0.61,-5.55112e-16,0.0449113,0.200022,0.0011342,0.799978,0.810779,0.446805,0.508323,0.0868563,0.274405,0.24709,0.24709,2026-10-01 10:07:29,151,5.5,0.25,0,0,73.3813,0.417266,0,0.2,0.8,0,0,0,-1,-1,0.103429
Green_YC310_Pro_5B88_261001_100959.csv,2,19,36,32,28858,0.0754319,5.38727e+06,0.477453,33.67,0.01,0.611667,0.00166667,0.0435397,0.176374,-0.00137162,0.823626,0.812823,0.434485,0.496003,0.0908964,0.274077,0.249075,0.249075,2026-10-01 10:09:59,150,5.5,0.25,0,0,76.7591,0.459489,0,0.243243,0.756757,0,0,0,-1,-1,0.103243
Green_YC310_Pro_5B88_261001_101227.csv,2,20,34,30,37600.2,0.110401,5.32796e+06,0.465592,33.66,-0.01,0.61,-0.001667,0.0446743,0.195936,0.0011346,0.804064,0.812958,0.439258,0.496138,0.089346,0.273879,0.249496,0.249496,2026-10-01 10:12:27,148,5.5,0.25,0,0,72.1358,0.401698,0,0.264706,0.735294,0,0,0,-1,-1,0.102857
Green_YC310_Pro_5B88_261001_101457.csv,2,21,39,10,25287.5,0.0611499,5.41646e+06,0.483291,33.64,-0.02,0.606667,-0.00333333,0.0491665,0.273388,0.00449223,0.726612,0.811186,0.45769,0.51457,0.080257,0.274748,0.247604,0.247604,2026-10-01 10:14:57,150,5.6,0.257143,0,0,85.4638,0.568298,0,0.333333,0.575758,0.030303,0.0606061,0,-1,-1,0.0965517
Green_YC310_Pro_5B88_261001_101727.csv,2,22,36,27,32081.8,0.0883271,5.33457e+06,0.466914,33.63,-0.01,0.605,-0.001667,0.0438482,0.181693,-0.0053183,0.818307,0.806374,0.476122,0.533002,0.0704344,0.276296,0.243085,0.243085,2026-10-01 10:17:27,150,5.6,0.257143,0,0,75.2613,0.440766,0,0.25,0.75,0,0,0,-1,-1,0.101081
Green_YC310_Pro_5B88_261001_102008.csv,2,23,40,5,20983.4,0.0439336,5.20006e+06,0.440012,33.58,-0.05,0.596667,-0.00833333,0.0451452,0.204055,0.00129701,0.795945,0.801563,0.446463,0.528191,0.0755713,0.272584,0.245832,0.245832,2026-10-01 10:20:08,161,6,0.285714,0,0,82.3045,0.528806,0.0285714,0.542857,0.257143,0.142857,0.0285714,0,-1,-1,0.0784615
Green_YC310_Pro_5B88_261001_102228.csv,2,24,29,5,41522.7,0.126091,4.86795e+06,0.37359,33.51,-0.07,0.585,-0.011667,0.0552196,0.377752,0.0100744,0.622248,0.736848,0.397709,0.479438,0.0832611,0.267282,0.208574,0.208574,2026-10-01 10:22:28,140,6.1,0.292857,0,0,62.9978,0.287472,0.0434783,0.130435,0.434783,0.304348,0.0869565,0,-1,-1,0.102222
Green_YC310_Pro_5B88_261001_102500.csv,2,25,34,6,30722.2,0.0828886,4.76921e+06,0.353842,33.34,-0.17,0.556667,-0.0283333,0.0551087,0.37584,-0.000110874,0.62416,0.713969,0.376849,0.458578,0.0797586,0.259088,0.210133,0.210133,2026-10-01 10:25:00,152,6.1,0.292857,0,0,71.5288,0.39411,0,0.225806,0.548387,0.0967742,0.129032,0,-1,-1,0.12
Green_YC310_Pro_5B88_261001_102729.csv,2,26,37,26,18356.5,0.0334261,4.83993e+06,0.367986,33.14,-0.2,0.523333,-0.0333337,0.0460179,0.219102,-0.00909077,0.780898,0.703611,0.411335,0.493063,0.0653574,0.251619,0.268683,0.268683,2026-10-01 10:27:29,149,6.1,0.292857,0,0,77.2981,0.466226,0,0.289474,0.684211,0.0263158,0,0,-1,-1,0.105143
Green_YC310_Pro_5B88_261001_103001.csv,2,27,33,8,26649.5,0.066598,4.84968e+06,0.369935,33,-0.14,0.5,-0.023333,0.0548576,0.37151,0.00883968,0.62849,0.695525,0.421229,0.502957,0.0509563,0.247303,0.286011,0.286011,2026-10-01 10:30:01,152,6.1,0.292857,0,0,71.2743,0.390929,0,0.125,0.65625,0.15625,0.0625,0,-1,-1,0.117143
Green_YC310_Pro_5B88_261001_103236.csv,2,28,35,25,27121.6,0.0684864,5.3485e+06,0.4697,32.89,-0.11,0.481667,-0.0183333,0.0481452,0.255779,-0.00671241,0.744221,0.694545,0.419544,0.501978,0.0512345,0.241464,0.298499,0.298499,2026-10-01 10:32:36,155,6.1,0.292857,0,0,74.9465,0.436831,0,0.2,0.714286,0.0857143,0,0,-1,-1,0.11871
Green_YC310_Pro_5B88_261001_103500.csv,2,29,35,18,22269.9,0.0490796,5.11268e+06,0.422536,32.83,-0.06,0.471667,-0.0100003,0.0529575,0.338751,0.00481234,0.661249,0.697036,0.430871,0.504469,0.0515128,0.238252,0.312209,0.312209,2026-10-01 10:35:00,144,6.1,0.292857,0,0,74.31,0.428875,0,0.147059,0.705882,0.117647,0.0294118,0,-1,-1,0.122308
Green_YC310_Pro_5B88_261001_103729.csv,2,30,35,30,19243.1,0.0369724,5.08178e+06,0.416355,32.85,0.02,0.475,0.003333,0.0494673,0.278574,-0.00349023,0.721426,0.684106,0.4213,0.494898,0.0409516,0.241534,0.296291,0.296291,2026-10-01 10:37:29,149,6.1,0.292857,0,0,74.1525,0.426906,0,0.111111,0.833333,0.0555556,0,0,-1,-1,0.119429
Green_YC310_Pro_5B88_261001_103959.csv,2,31,34,22,19200.7,0.0368027,5.09239e+06,0.418477,32.9,0.05,0.483333,0.00833333,0.0538259,0.353722,0.00435859,0.646278,0.669643,0.417906,0.491503,0.0432635,0.243673,0.278362,0.278362,2026-10-01 10:39:59,150,6.1,0.292857,0,0,72.6496,0.40812,0,0.114286,0.742857,0.142857,0,0,-1,-1,0.124242
Green_YC310_Pro_5B88_261001_104229.csv,2,32,35,26,23554.7,0.0542188,5.27626e+06,0.455253,33.05,0.15,0.508333,0.0250003,0.0554741,0.38214,0.0016482,0.61786,0.670003,0.413019,0.486617,0.0455755,0.251067,0.25828,0.25828,2026-10-01 10:42:29,150,5.8,0.271429,0,0,73.9437,0.424296,0,0.0857143,0.714286,0.2,0,0,-1,-1,0.124375
Green_YC310_Pro_5B88_261001_104502.csv,2,33,34,27,23587,0.0543482,5.22548e+06,0.445096,33.13,0.08,0.521667,0.0133337,0.0537047,0.351632,-0.00176944,0.648368,0.670363,0.412964,0.486562,0.0508717,0.254153,0.24925,0.24925,2026-10-01 10:45:02,153,5.8,0.271429,0,0,71.6292,0.395365,0,0.0571429,0.828571,0.114286,0,0,-1,-1,0.123636
Green_YC310_Pro_5B88_261001_104731.csv,2,34,35,31,23172.9,0.0526914,5.28028e+06,0.456056,33.24,0.11,0.54,0.018333,0.0493837,0.277134,-0.00432096,0.722866,0.673126,0.402194,0.475791,0.0565759,0.258728,0.233857,0.233857,2026-10-01 10:47:31,149,5.8,0.271429,0,0,74.9465,0.436831,0,0.138889,0.833333,0.0277778,0,0,-1,-1,0.116667
Green_YC310_Pro_5B88_261001_104959.csv,2,35,32,14,26643.1,0.0665726,5.19017e+06,0.438034,33.34,0.1,0.556667,0.0166667,0.0549934,0.373852,0.00560972,0.626148,0.657098,0.394466,0.468064,0.0592932,0.26341,0.20821,0.20821,2026-10-01 10:49:59,148,5.8,0.271429,0,0,67.1798,0.339747,0,0.0344828,0.793103,0.172414,0,0,-1,-1,0.122222
Green_YC310_Pro_5B88_261001_105232.csv,2,36,36,19,22834.1,0.0513362,5.22892e+06,0.445784,33.39,0.05,0.565,0.008333,0.0534226,0.346769,-0.0015708,0.653231,0.617849,0.388213,0.461811,0.0669705,0.264416,0.172768,0.172768,2026-10-01 10:52:32,153,5.8,0.271429,0,0,76.9231,0.461539,0,0.108108,0.702703,0.189189,0,0,-1,-1,0.120645
Green_YC310_Pro_5B88_261001_105457.csv,2,37,30,19,34659.2,0.0986368,5.17496e+06,0.434992,33.34,-0.05,0.556667,-0.00833333,0.0600604,0.461215,0.00663785,0.538785,0.58683,0.358399,0.431997,0.0708192,0.260976,0.143273,0.143273,2026-10-01 10:54:57,145,5.8,0.271429,0,0,63.2022,0.290027,0,0.0344828,0.689655,0.275862,0,0,-1,-1,0.134615
Green_YC310_Pro_5B88_261001_105728.csv,2,38,31,28,31320.6,0.0852826,5.10521e+06,0.421042,33.11,-0.23,0.518333,-0.0383337,0.0555518,0.38348,-0.00450858,0.61652,0.582597,0.323631,0.427763,0.0624846,0.250649,0.198992,0.198992,2026-10-01 10:57:28,151,5.9,0.278571,0,0,66.0981,0.326226,0,0.03125,0.8125,0.15625,0,0,-1,-1,0.121875
Green_YC310_Pro_5B88_261001_105957.csv,2,39,38,19,16583.1,0.0263324,5.22596e+06,0.445191,32.85,-0.26,0.475,-0.043333,0.0481034,0.255059,-0.00744839,0.744941,0.627833,0.39519,0.473,0.0559114,0.238375,0.285266,0.285266,2026-10-01 10:59:57,149,5.9,0.278571,0,0,80.6223,0.507779,0,0.216216,0.72973,0.0540541,0,0,-1,-1,0.10375
Green_YC310_Pro_5B88_261001_110228.csv,2,40,37,27,21445,0.0457801,5.55552e+06,0.511103,32.7,-0.15,0.45,-0.025,0.0462039,0.222309,-0.00189948,0.777691,0.67307,0.427103,0.504912,0.0493382,0.23188,0.346872,0.346872,2026-10-01 11:02:28,151,5.9,0.278571,0,0,80.3765,0.504706,0,0.236842,0.736842,0.0263158,0,0,-1,-1,0.108
Green_YC310_Pro_5B88_261001_110500.csv,2,41,34,9,28975.6,0.0759022,5.31044e+06,0.462089,32.68,-0.02,0.446667,-0.00333333,0.0577664,0.421662,0.0115625,0.578338,0.670669,0.459015,0.536825,0.0722869,0.225983,0.35751,0.35751,2026-10-01 11:05:00,152,6.1,0.292857,0,0,73.54,0.41925,0,0.185185,0.555556,0.185185,0.0740741,0,-1,-1,0.119
Green_YC310_Pro_5B88_261001_110730.csv,2,42,34,9,33794.6,0.0951783,5.24679e+06,0.449359,32.66,-0.02,0.443333,-0.00333367,0.0504526,0.295562,-0.00731382,0.704438,0.655979,0.459328,0.537138,0.0774237,0.223848,0.350319,0.350319,2026-10-01 11:07:30,150,6.1,0.292857,0,0,73.0659,0.413324,0,0.321429,0.535714,0.107143,0.0357143,0,-1,-1,0.101053
Green_YC310_Pro_5B88_261001_110957.csv,2,43,38,14,26201.5,0.064806,5.22532e+06,0.445065,32.57,-0.09,0.428333,-0.0149997,0.04876,0.266379,-0.00169259,0.733621,0.677924,0.455795,0.533604,0.107328,0.212804,0.37836,0.37836,2026-10-01 11:09:57,147,6,0.285714,0,0,80.4517,0.505646,0,0.310345,0.62069,0.0689655,0,0,-1,-1,0.106154
Green_YC310_Pro_5B88_261001_111229.csv,2,44,30,4,61130,0.20452,5.56153e+06,0.512305,32.52,-0.05,0.42,-0.008333,0.053948,0.355828,0.005188,0.644172,0.688897,0.452104,0.529914,0.134663,0.204404,0.393261,0.393261,2026-10-01 11:12:29,152,5.9,0.278571,0,0,71.885,0.398563,0,0.315789,0.368421,0.210526,0.105263,0,-1,-1,0.08
