Sheet Name,Segment,Index,total_beat_count,Sel_Min,diff,diff_n,mean,mean_n,temp,temp_raw_diff,temp_n,temp_diff,rise_low,rise_low_n,rise_low_diff,rise_low_n_inv,rise_low_n_inv_center,HR_n_center,HR_n_center_lim,diff_n_center,diff_anker,rl_inv_corr,inv_corr,datetime,time_gap_seconds,CGM,CGM_n,SMBG,SMBG_n,HR,HR_n,r20,r40,r60,r80,r100,time_gap_state,time_gap_slot,time_gap_offset_s,rise_low_50
Green_YC310_Pro_5B88_260930_022658.csv,8,1,32,12,25134.1,0.0605364,4.79607e+06,0.359215,33.5,0,0.583333,0,0.064375,0.535603,0,0.464397,0.464397,0.365176,0.365176,0.0605364,0.271555,0.35101,0.307143,2026-09-30 02:26:58,0,5,0.214286,0,0,69.2141,0.365176,0,0.0625,0.6875,0.21875,0.03125,0,-1,-1,0.1208
Green_YC310_Pro_5B88_260930_022858.csv,8,2,33,6,33853.9,0.0954154,4.85704e+06,0.371407,33.39,-0.11,0.565,-0.018333,0.065,0.546379,0.000625,0.453621,0.461182,0.408947,0.408947,0.0822886,0.261181,0.342209,0.308716,2026-09-30 02:28:58,120,5,0.214286,0,0,71.0696,0.38837,0,0.142857,0.571429,0.178571,0.107143,0,-1,-1,0.13875
Green_YC310_Pro_5B88_260930_023103.csv,8,3,36,17,29446.8,0.0777871,4.68647e+06,0.337294,33.34,-0.05,0.556667,-0.00833333,0.063871,0.526913,-0.00112903,0.473087,0.441323,0.396162,0.396162,0.0878311,0.257383,0.338209,0.308513,2026-09-30 02:31:03,125,5,0.214286,0,0,76.2174,0.452717,0,0.16129,0.548387,0.225806,0.0645161,0,-1,-1,0.1376
Green_YC310_Pro_5B88_260930_023301.csv,8,4,32,9,35083.8,0.100335,4.63333e+06,0.326666,33.3,-0.04,0.55,-0.006667,0.0689655,0.61475,0.00509452,0.38525,0.397262,0.383378,0.383378,0.0882221,0.255199,0.313802,0.286291,2026-09-30 02:33:01,118,5,0.214286,0,0,67.8925,0.348656,0,0.0689655,0.517241,0.310345,0.103448,0,-1,-1,0.142105
Green_YC310_Pro_5B88_260930_023457.csv,8,5,30,20,32774,0.0910959,4.55845e+06,0.31169,33.3,0,0.55,-5.55112e-16,0.0726667,0.678563,0.00370117,0.321437,0.385702,0.360028,0.371818,0.0865443,0.255553,0.305383,0.277518,2026-09-30 02:34:57,116,4.7,0.192857,0,0,65.123,0.314038,0,0.1,0.233333,0.6,0.0666667,0,-1,-1,0.1552
Green_YC310_Pro_5B88_260930_023659.csv,8,6,33,24,27050.5,0.068202,4.83844e+06,0.367688,33.29,-0.01,0.548333,-0.00166667,0.0658824,0.561592,-0.00678435,0.438408,0.381012,0.349842,0.367128,0.0751889,0.257425,0.302242,0.272504,2026-09-30 02:36:59,122,4.7,0.192857,0,0,70.6134,0.382667,0,0.0882353,0.529412,0.382353,0,0,-1,-1,0.136429
Green_YC310_Pro_5B88_260930_023857.csv,8,7,31,12,26567.2,0.0662689,4.31522e+06,0.263044,33.33,0.04,0.555,0.006667,0.0724138,0.674203,0.00653139,0.325797,0.398221,0.35282,0.370106,0.0833806,0.257798,0.310793,0.280684,2026-09-30 02:38:57,118,4.7,0.192857,0,0,67.5872,0.34484,0,0.0344828,0.310345,0.655172,0,0,-1,-1,0.144545
Green_YC310_Pro_5B88_260930_024058.csv,8,8,31,18,37170.9,0.108684,4.68796e+06,0.337593,33.32,-0.01,0.553333,-0.00166667,0.0621429,0.497118,-0.0102709,0.502882,0.448381,0.330336,0.347623,0.0889942,0.256087,0.337343,0.308944,2026-09-30 02:40:58,121,4.9,0.207143,0,0,66.4761,0.330951,0,0.0357143,0.821429,0.142857,0,0,-1,-1,0.126154
Green_YC310_Pro_5B88_260930_024302.csv,8,9,30,28,32153.5,0.0886139,4.71558e+06,0.343115,33.33,0.01,0.555,0.001667,0.0645161,0.538037,0.00237323,0.461963,0.486271,0.331403,0.34869,0.0920297,0.255971,0.358317,0.330034,2026-09-30 02:43:02,124,4.9,0.207143,0,0,65.2174,0.315217,0,0,0.774194,0.225806,0,0,-1,-1,0.129333
Green_YC310_Pro_5B88_260930_024458.csv,8,10,32,10,28843.9,0.0753754,4.73051e+06,0.346102,33.33,0,0.555,-3.33067e-16,0.06125,0.481724,-0.0032661,0.518276,0.477249,0.322468,0.339754,0.178441,0.237724,0.35252,0.342484,2026-09-30 02:44:58,116,5.2,0.228571,0,0,67.8925,0.348656,0,0.0625,0.8125,0.125,0,0,-1,-1,0.124828
Green_YC310_Pro_5B88_260930_024658.csv,8,11,29,1,101980,0.367919,4.85617e+06,0.371235,33.33,0,0.555,-3.33067e-16,0.0666667,0.575115,0.00541667,0.424885,0.451508,0.316905,0.334191,0.206428,0.231814,0.337642,0.333515,2026-09-30 02:46:58,120,5.2,0.228571,0,0,62.1873,0.277341,0,0.0833333,0.625,0.166667,0.125,0,-1,-1,0.108333
Green_YC310_Pro_5B88_260930_024858.csv,8,12,36,9,40445.7,0.121783,5.01945e+06,0.40389,33.33,0,0.555,-3.33067e-16,0.0655172,0.555297,-0.00114946,0.444703,0.411363,0.324717,0.342003,0.175991,0.238242,0.315811,0.305257,2026-09-30 02:48:58,120,5.3,0.235714,0,0,75.3664,0.44208,0,0,0.724138,0.275862,0,0,-1,-1,0.135556
Green_YC310_Pro_5B88_260930_025058.csv,8,13,33,21,19567.6,0.0382704,4.30912e+06,0.261824,33.31,-0.02,0.551667,-0.00333333,0.0682353,0.60216,0.00271809,0.39784,0.422377,0.361302,0.353018,0.0623722,0.261183,0.325694,0.292199,2026-09-30 02:50:58,120,5.3,0.235714,0,0,69.7674,0.372092,0,0,0.588235,0.411765,0,0,-1,-1,0.140625
Green_YC310_Pro_5B88_260930_025257.csv,8,14,33,13,16765.8,0.0270632,4.29182e+06,0.258364,33.31,0,0.551667,-3.33333e-07,0.0670588,0.581876,-0.00117648,0.418124,0.433391,0.350962,0.342678,0.0685608,0.259876,0.331001,0.298812,2026-09-30 02:52:57,119,5.3,0.235714,0,0,70.9677,0.387096,0,0,0.647059,0.352941,0,0,-1,-1,0.136364
Green_YC310_Pro_5B88_260930_025458.csv,8,15,34,3,39061.8,0.116247,4.76943e+06,0.353885,33.31,0,0.551667,-3.33333e-07,0.0632258,0.51579,-0.00383299,0.48421,0.489916,0.396618,0.388334,0.0796841,0.257527,0.366458,0.336619,2026-09-30 02:54:58,121,5.3,0.235714,0,0,72.0339,0.400424,0,0.0645161,0.741935,0.16129,0.0322581,0,-1,-1,0.123077
Green_YC310_Pro_5B88_260930_025658.csv,8,16,34,4,33595.1,0.0943805,4.72617e+06,0.345233,33.32,0.01,0.553333,0.00166633,0.0584,0.432586,-0.0048258,0.567414,0.515966,0.409114,0.40083,0.0957422,0.254662,0.381754,0.35478,2026-09-30 02:56:58,120,5.3,0.235714,0,0,72.1868,0.402335,0,0.24,0.64,0.08,0.04,0,-1,-1,0.10125
Green_YC310_Pro_5B88_260930_025900.csv,8,17,34,27,29149.8,0.0765991,4.76745e+06,0.353489,33.29,-0.03,0.548333,-0.00499967,0.0628571,0.509433,0.00445714,0.490567,0.522094,0.404283,0.395999,0.0823756,0.255908,0.385783,0.357563,2026-09-30 02:59:00,122,5.1,0.221429,0,0,73.9666,0.424582,0,0.0571429,0.742857,0.2,0,0,-1,-1,0.130323
Green_YC310_Pro_5B88_260930_030059.csv,8,18,33,14,29036.8,0.0761472,4.7713e+06,0.35426,33.28,-0.01,0.546667,-0.00166633,0.06,0.460172,-0.0028571,0.539828,0.519676,0.399453,0.393581,0.0819148,0.25548,0.38436,0.356568,2026-09-30 03:00:59,119,5.1,0.221429,0,0,71.7391,0.396739,0,0.129032,0.741935,0.129032,0,0,-1,-1,0.11931
Green_YC310_Pro_5B88_260930_030300.csv,8,19,33,20,29749.3,0.0789971,4.76243e+06,0.352486,33.3,0.02,0.55,0.003333,0.0618182,0.49152,0.00181818,0.50848,0.521618,0.378659,0.372787,0.0814539,0.256628,0.383049,0.354109,2026-09-30 03:03:00,121,5.1,0.221429,0,0,70.163,0.377037,0,0.0909091,0.727273,0.181818,0,0,-1,-1,0.126875
Green_YC310_Pro_5B88_260930_030501.csv,8,20,33,28,32304.4,0.0892175,4.80605e+06,0.36121,33.31,0.01,0.551667,0.00166667,0.0605882,0.470314,-0.00122996,0.529686,0.511086,0.356383,0.362255,0.0987145,0.253509,0.374962,0.349141,2026-09-30 03:05:01,121,5.2,0.228571,0,0,68.75,0.359375,0,0.0588235,0.852941,0.0882353,0,0,-1,-1,0.123125
Green_YC310_Pro_5B88_260930_030658.csv,8,21,31,10,41982.3,0.127929,4.80026e+06,0.360052,33.32,0.01,0.553333,0.00166633,0.0670968,0.582531,0.00650857,0.417469,0.495093,0.387256,0.393128,0.0980654,0.254171,0.368244,0.341761,2026-09-30 03:06:58,117,5.2,0.228571,0,0,66.6189,0.332736,0,0.0322581,0.612903,0.322581,0.0322581,0,-1,-1,0.120909
Green_YC310_Pro_5B88_260930_030905.csv,8,22,41,6,31362.2,0.0854488,4.93146e+06,0.386292,33.36,0.04,0.56,0.006667,0.0582353,0.429746,-0.00886151,0.570254,0.502726,0.418129,0.400762,0.0974162,0.25641,0.373758,0.345035,2026-09-30 03:09:05,127,5.2,0.228571,0,0,88.4256,0.60532,0,0.294118,0.5,0.205882,0,0,-1,-1,0.138947
Green_YC310_Pro_5B88_260930_031100.csv,8,23,38,23,29717.7,0.0788709,4.90433e+06,0.380865,33.41,0.05,0.568333,0.00833333,0.0621053,0.49647,0.00386996,0.50353,0.51036,0.434101,0.408396,0.0794278,0.262836,0.377697,0.342548,2026-09-30 03:11:00,115,5.2,0.228571,0,0,80.2817,0.503521,0,0.105263,0.736842,0.105263,0.0526316,0,-1,-1,0.130625
Green_YC310_Pro_5B88_260930_031258.csv,8,24,37,21,28490.9,0.0739637,4.95727e+06,0.391454,33.44,0.03,0.573333,0.00500033,0.0584211,0.432949,-0.00368425,0.567051,0.546655,0.450073,0.424368,0.0816326,0.263947,0.398353,0.362093,2026-09-30 03:12:58,118,5.4,0.242857,0,0,79.5129,0.493911,0,0.157895,0.763158,0.0789474,0,0,-1,-1,0.115758
Green_YC310_Pro_5B88_260930_031500.csv,8,25,34,29,32876.6,0.0915063,4.94502e+06,0.389003,33.47,0.03,0.578333,0.00500033,0.0582857,0.430616,-0.000135386,0.569384,0.577394,0.447039,0.421333,0.0777467,0.266344,0.414313,0.375657,2026-09-30 03:15:00,122,5.4,0.242857,0,0,71.73,0.396625,0,0.0857143,0.914286,0,0,0,-1,-1,0.117143
Green_YC310_Pro_5B88_260930_031658.csv,8,26,38,10,23502.7,0.0540106,4.93833e+06,0.387665,33.53,0.06,0.588333,0.0100003,0.0567568,0.404254,-0.00152894,0.595746,0.608704,0.440415,0.41471,0.0751241,0.270051,0.429296,0.386932,2026-09-30 03:16:58,118,5.4,0.242857,0,0,79.5534,0.494417,0,0.189189,0.783784,0.027027,0,0,-1,-1,0.115152
Green_YC310_Pro_5B88_260930_031858.csv,8,27,36,12,24843.1,0.0593724,4.90547e+06,0.381094,33.58,0.05,0.596667,0.00833367,0.052973,0.339017,-0.00378383,0.660983,0.617172,0.430204,0.404498,0.0798553,0.271679,0.43152,0.387529,2026-09-30 03:18:58,120,5.2,0.228571,0,0,76.7045,0.458806,0,0.405405,0.540541,0.0540541,0,0,-1,-1,0.10303
Green_YC310_Pro_5B88_260930_032059.csv,8,28,33,26,36424.9,0.1057,4.97433e+06,0.394865,33.59,0.01,0.598333,0.00166633,0.0648485,0.543767,0.0118755,0.456233,0.604729,0.422611,0.396905,0.0965471,0.26868,0.423586,0.382594,2026-09-30 03:20:59,121,5.2,0.228571,0,0,69.2792,0.36599,0,0.0909091,0.606061,0.272727,0.030303,0,-1,-1,0.121667
Green_YC310_Pro_5B88_260930_032257.csv,8,29,37,13,36021.4,0.104086,4.9831e+06,0.39662,33.63,0.04,0.605,0.006667,0.0568421,0.405726,-0.00800639,0.594274,0.577551,0.41897,0.393264,0.118414,0.266165,0.40673,0.368253,2026-09-30 03:22:57,118,5.7,0.264286,0,0,77.7311,0.471639,0,0.210526,0.736842,0.0526316,0,0,-1,-1,0.11871
Green_YC310_Pro_5B88_260930_032502.csv,8,30,35,16,40687,0.122748,5.4562e+06,0.49124,33.67,0.04,0.611667,0.00666667,0.06,0.460172,0.0031579,0.539828,0.561685,0.41928,0.393575,0.145456,0.262556,0.396537,0.361669,2026-09-30 03:25:02,125,5.7,0.264286,0,0,74.3626,0.429532,0,0.114286,0.771429,0.114286,0,0,-1,-1,0.120625
Green_YC310_Pro_5B88_260930_032658.csv,8,31,31,8,56706.8,0.186827,5.50761e+06,0.501521,33.76,0.09,0.626667,0.0149997,0.068,0.598103,0.008,0.401897,0.550952,0.372582,0.382842,0.157312,0.264782,0.383636,0.346542,2026-09-30 03:26:58,116,5.7,0.264286,0,0,68.5335,0.356669,0,0.12,0.52,0.2,0.16,0,-1,-1,0.121176
Green_YC310_Pro_5B88_260930_032902.csv,8,32,31,22,44913.3,0.139653,5.41945e+06,0.48389,33.84,0.08,0.64,0.013333,0.0587097,0.437925,-0.00929032,0.562075,0.551878,0.336861,0.34712,0.162819,0.267823,0.378512,0.338377,2026-09-30 03:29:02,124,6.3,0.307143,0,0,66.5236,0.331545,0,0.129032,0.806452,0.0645161,0,0,-1,-1,0.11625
Green_YC310_Pro_5B88_260930_033100.csv,8,33,30,23,51105.6,0.164422,5.38527e+06,0.477054,33.9,0.06,0.65,0.01,0.0593548,0.449049,0.000645139,0.550951,0.552805,0.301483,0.311743,0.161978,0.271154,0.374083,0.330618,2026-09-30 03:31:00,118,6.3,0.307143,0,0,65.7895,0.322369,0,0.0645161,0.903226,0.0322581,0,0,-1,-1,0.123226
Green_YC310_Pro_5B88_260930_033259.csv,8,34,28,22,56075.7,0.184303,5.6264e+06,0.525281,33.93,0.03,0.655,0.005,0.0637037,0.524029,0.0043489,0.475971,0.533895,0.276639,0.292833,0.167307,0.271605,0.360424,0.316507,2026-09-30 03:32:59,119,6.3,0.307143,0,0,60.0429,0.250536,0,0,0.814815,0.185185,0,0,-1,-1,0.130833
Green_YC310_Pro_5B88_260930_033458.csv,8,35,29,23,51870,0.16748,5.62776e+06,0.525552,33.95,0.02,0.658333,0.00333333,0.062,0.494655,-0.0017037,0.505345,0.526356,0.269129,0.285323,0.172636,0.271531,0.35491,0.311067,2026-09-30 03:34:58,119,6.3,0.307143,0,0,62.2318,0.277898,0,0,0.9,0.1,0,0,-1,-1,0.12
Green_YC310_Pro_5B88_260930_033658.csv,8,36,29,27,51531.2,0.166125,5.6204e+06,0.52408,33.95,0,0.658333,3.33333e-07,0.06,0.460172,-0.002,0.539828,0.526418,0.275732,0.285384,0.16551,0.273035,0.355494,0.310147,2026-09-30 03:36:58,120,6.3,0.307143,0,0,61.6147,0.270184,0,0.0357143,0.928571,0.0357143,0,0,-1,-1,0.12
Green_YC310_Pro_5B88_260930_033859.csv,8,37,29,26,50731.4,0.162926,5.63474e+06,0.526948,33.93,-0.02,0.655,-0.003333,0.0586207,0.436391,-0.00137931,0.563609,0.53408,0.279114,0.288766,0.170289,0.270975,0.360734,0.317446,2026-09-30 03:38:59,121,6.3,0.307143,0,0,61.7898,0.272373,0,0.103448,0.862069,0.0344828,0,0,-1,-1,0.116667
Green_YC310_Pro_5B88_260930_034058.csv,8,38,29,28,55607.5,0.18243,5.56039e+06,0.512077,33.91,-0.02,0.651667,-0.00333333,0.0606667,0.471667,0.00204597,0.528333,0.535038,0.272923,0.282575,0.171742,0.269617,0.361421,0.319492,2026-09-30 03:40:58,119,6.3,0.307143,0,0,63.0435,0.288044,0,0,0.966667,0.0333333,0,0,-1,-1,0.112667
Green_YC310_Pro_5B88_260930_034258.csv,8,39,28,24,49795.3,0.159181,5.68571e+06,0.537141,33.9,-0.01,0.65,-0.001667,0.06,0.460172,-0.0006667,0.539828,0.535996,0.269148,0.278801,0.170206,0.269416,0.361976,0.320248,2026-09-30 03:42:58,120,6.3,0.307143,0,0,60.1288,0.25161,0,0,1,0,0,0,-1,-1,0.113103
Green_YC310_Pro_5B88_260930_034503.csv,8,40,29,24,55008.6,0.180034,5.57021e+06,0.514042,33.87,-0.03,0.645,-0.005,0.06,0.460172,4.16334e-17,0.539828,0.535864,0.267791,0.278669,0.174189,0.266999,0.362789,0.323479,2026-09-30 03:45:03,125,6.3,0.307143,0,0,62.5899,0.282374,0,0.0714286,0.857143,0.0714286,0,0,-1,-1,0.114667
Green_YC310_Pro_5B88_260930_034701.csv,8,41,30,27,54376.6,0.177507,5.7603e+06,0.55206,33.85,-0.02,0.641667,-0.00333333,0.0606897,0.472063,0.000689655,0.527937,0.534543,0.276739,0.287617,0.180657,0.264582,0.363462,0.326568,2026-09-30 03:47:01,118,6.3,0.307143,0,0,62.7178,0.283972,0,0,0.965517,0.0344828,0,0,-1,-1,0.112903
Green_YC310_Pro_5B88_260930_034858.csv,8,42,29,25,56888,0.187552,5.7724e+06,0.554481,33.84,-0.01,0.64,-0.001667,0.06,0.460172,-0.0006897,0.539828,0.528235,0.283283,0.294161,0.18443,0.26326,0.360807,0.325236,2026-09-30 03:48:58,117,6.3,0.307143,0,0,62.2763,0.278454,0,0,1,0,0,0,-1,-1,0.114667
Green_YC310_Pro_5B88_260930_035059.csv,8,43,30,28,57838.5,0.191354,5.73015e+06,0.54603,33.82,-0.02,0.636667,-0.00333333,0.062,0.494655,0.002,0.505345,0.528532,0.28315,0.294028,0.18248,0.26262,0.361629,0.326697,2026-09-30 03:50:59,121,6.3,0.307143,0,0,63.3803,0.292254,0,0,0.9,0.1,0,0,-1,-1,0.113548
Green_YC310_Pro_5B88_260930_035300.csv,8,44,29,26,54167.8,0.176671,5.75226e+06,0.550451,33.8,-0.02,0.633333,-0.00333367,0.0607143,0.472488,-0.00128571,0.527512,0.540422,0.293438,0.304316,0.18053,0.261981,0.369812,0.335518,2026-09-30 03:53:00,121,6.3,0.307143,0,0,61.5711,0.269639,0,0,0.964286,0.0357143,0,0,-1,-1,0.113103
Green_YC310_Pro_5B88_260930_035457.csv,8,45,29,23,53391,0.173564,5.80972e+06,0.561943,33.78,-0.02,0.63,-0.003333,0.057931,0.424501,-0.00278327,0.575499,0.529886,0.318421,0.329299,0.160868,0.265082,0.36666,0.329265,2026-09-30 03:54:57,117,5.9,0.278571,0,0,62.4103,0.280129,0,0.103448,0.896552,0,0,0,-1,-1,0.114483
Green_YC310_Pro_5B88_260930_035658.csv,8,46,33,15,43092.6,0.13237,5.87609e+06,0.575218,33.75,-0.03,0.625,-0.005,0.0569697,0.407926,-0.000961303,0.592074,0.519349,0.309926,0.320804,0.162627,0.263134,0.361051,0.325605,2026-09-30 03:56:58,121,5.9,0.278571,0,0,69.3763,0.367204,0,0.151515,0.848485,0,0,0,-1,-1,0.115625
Green_YC310_Pro_5B88_260930_035858.csv,8,47,28,24,58660.5,0.194642,5.98089e+06,0.596177,33.73,-0.02,0.621667,-0.00333333,0.0644444,0.536801,0.00747474,0.463199,0.507558,0.290424,0.309012,0.166191,0.261331,0.35349,0.319847,2026-09-30 03:58:58,120,5.9,0.278571,0,0,59.5322,0.244153,0,0,0.777778,0.222222,0,0,-1,-1,0.12069
Green_YC310_Pro_5B88_260930_040059.csv,8,48,28,26,47263.1,0.149052,4.92302e+06,0.384603,33.73,0,0.621667,-3.33333e-07,0.0627586,0.507735,-0.00168578,0.492265,0.495766,0.259915,0.297221,0.171561,0.260197,0.344345,0.311836,2026-09-30 04:00:59,121,5.9,0.278571,0,0,60.5187,0.256484,0,0,0.862069,0.137931,0,0,-1,-1,0.116552
Green_YC310_Pro_5B88_260930_040258.csv,8,49,29,28,47120.1,0.14848,4.90694e+06,0.381388,33.71,-0.02,0.618333,-0.00333367,0.0606667,0.471667,-0.00209193,0.528333,0.513382,0.264232,0.301538,0.166186,0.260281,0.355236,0.322643,2026-09-30 04:02:58,119,5.9,0.278571,0,0,62.0542,0.275678,0,0,0.966667,0.0333333,0,0,-1,-1,0.117931
Green_YC310_Pro_5B88_260930_040459.csv,8,50,28,27,52575.8,0.170303,5.29357e+06,0.458714,33.71,0,0.618333,3.33333e-07,0.0613793,0.483954,0.00071261,0.516046,0.525063,0.268549,0.305855,0.160811,0.261416,0.362137,0.328409,2026-09-30 04:04:59,121,5.9,0.278571,0,0,61.3139,0.266424,0,0,0.931034,0.0689655,0,0,-1,-1,0.117931
Green_YC310_Pro_5B88_260930_040659.csv,8,51,28,24,53285.6,0.173142,5.52897e+06,0.505794,33.68,-0.03,0.613333,-0.00499967,0.06,0.460172,-0.0013793,0.539828,0.530874,0.299577,0.311666,0.151467,0.261812,0.368977,0.334852,2026-09-30 04:06:59,120,5.9,0.278571,0,0,60.9137,0.261421,0,0,1,0,0,0,-1,-1,0.113103
Green_YC310_Pro_5B88_260930_040858.csv,8,52,31,21,42982.9,0.131931,5.56445e+06,0.51289,33.66,-0.02,0.61,-0.003333,0.0575,0.417069,-0.0025,0.582931,0.536749,0.330605,0.317541,0.142123,0.262735,0.375518,0.340472,2026-09-30 04:08:58,119,5.8,0.271429,0,0,66.6667,0.333334,0,0.125,0.875,0,0,0,-1,-1,0.114375
Green_YC310_Pro_5B88_260930_041058.csv,8,53,34,24,37775.9,0.111104,5.60146e+06,0.520292,33.65,-0.01,0.608333,-0.00166667,0.0570588,0.409462,-0.000441176,0.590538,0.536749,0.322354,0.30929,0.143282,0.261964,0.375164,0.340888,2026-09-30 04:10:58,120,5.8,0.271429,0,0,71.9831,0.399789,0,0.147059,0.852941,0,0,0,-1,-1,0.11
Green_YC310_Pro_5B88_260930_041259.csv,8,54,30,15,44043.6,0.136175,5.79555e+06,0.559109,33.63,-0.02,0.605,-0.003333,0.06,0.460172,0.0029412,0.539828,0.525973,0.314103,0.301039,0.144442,0.260668,0.369109,0.336128,2026-09-30 04:12:59,121,5.8,0.271429,0,0,65.5022,0.318778,0,0.0740741,0.851852,0.0740741,0,0,-1,-1,0.116552
Green_YC310_Pro_5B88_260930_041457.csv,8,55,27,24,54444.8,0.177779,5.77222e+06,0.554444,33.61,-0.02,0.601667,-0.00333333,0.0628571,0.509433,0.00285714,0.490567,0.513216,0.279537,0.288281,0.158311,0.256689,0.359751,0.330751,2026-09-30 04:14:57,118,5.8,0.271429,0,0,58.2734,0.228418,0,0,0.857143,0.142857,0,0,-1,-1,0.122963
Green_YC310_Pro_5B88_260930_041700.csv,8,56,28,26,48178.6,0.152714,5.74612e+06,0.549224,33.59,-0.02,0.598333,-0.00333367,0.0607143,0.472488,-0.00214281,0.527512,0.509252,0.244971,0.284318,0.16124,0.255019,0.355319,0.327987,2026-09-30 04:17:00,123,5.8,0.271429,0,0,59.9572,0.249465,0,0,0.964286,0.0357143,0,0,-1,-1,0.117241
Green_YC310_Pro_5B88_260930_041901.csv,8,57,28,27,50437.9,0.161752,5.72231e+06,0.544463,33.58,-0.01,0.596667,-0.00166633,0.0606897,0.472063,-2.46448e-05,0.527937,0.518488,0.271755,0.293554,0.146895,0.257523,0.363056,0.333221,2026-09-30 04:19:01,121,5.8,0.271429,0,0,60.5624,0.25703,0,0,0.965517,0.0344828,0,0,-1,-1,0.117931
Green_YC310_Pro_5B88_260930_042101.csv,8,58,30,16,37840.1,0.111361,5.89292e+06,0.578584,33.56,-0.02,0.593333,-0.00333367,0.0621429,0.497118,0.00145316,0.502882,0.527724,0.271769,0.293567,0.137978,0.258355,0.368896,0.338229,2026-09-30 04:21:01,120,5.8,0.271429,0,0,64.7017,0.308771,0,0,0.892857,0.107143,0,0,-1,-1,0.116774
Green_YC310_Pro_5B88_260930_042258.csv,8,59,28,26,51859.3,0.167437,5.74844e+06,0.549687,33.54,-0.02,0.59,-0.003333,0.0607143,0.472488,-0.00142861,0.527512,0.537364,0.285631,0.303207,0.135946,0.257733,0.376116,0.346071,2026-09-30 04:22:58,117,5.8,0.271429,0,0,58.7824,0.23478,0,0,0.964286,0.0357143,0,0,-1,-1,0.120714
Green_YC310_Pro_5B88_260930_042457.csv,8,60,34,16,34386.9,0.0975475,5.83072e+06,0.566144,33.52,-0.02,0.586667,-0.00333333,0.0582857,0.430616,-0.00242859,0.569384,0.547004,0.313341,0.312847,0.127484,0.258469,0.384489,0.353708,2026-09-30 04:24:57,119,5.7,0.264286,0,0,72.3918,0.404898,0,0.114286,0.857143,0.0285714,0,0,-1,-1,0.109032
Green_YC310_Pro_5B88_260930_042659.csv,8,61,29,27,46851.3,0.147405,5.979e+06,0.5958,33.49,-0.03,0.581667,-0.00500033,0.0606897,0.472063,0.00240396,0.527937,0.54211,0.335836,0.335342,0.116685,0.259173,0.384623,0.353138,2026-09-30 04:26:59,122,5.7,0.264286,0,0,60.9244,0.261555,0,0,0.965517,0.0344828,0,0,-1,-1,0.118667
Green_YC310_Pro_5B88_260930_042900.csv,8,62,33,11,28595.7,0.0743827,5.06086e+06,0.412171,33.46,-0.03,0.576667,-0.00500033,0.0586207,0.436391,-0.00206901,0.563609,0.537216,0.358331,0.357838,0.106447,0.259758,0.384756,0.352686,2026-09-30 04:29:00,121,5.7,0.264286,0,0,70.3125,0.378906,0.0344828,0.103448,0.758621,0.103448,0,0,-1,-1,0.118571
Green_YC310_Pro_5B88_260930_043059.csv,8,63,27,23,42403.9,0.129616,4.98359e+06,0.396717,33.43,-0.03,0.571667,-0.00500033,0.0614286,0.484803,0.00280787,0.515197,0.507801,0.304186,0.328422,0.11417,0.256551,0.384756,0.355893,2026-09-30 04:30:59,119,5.7,0.264286,0,0,57.8985,0.223731,0,0,0.928571,0.0714286,0,0,-1,-1,0.123571
Green_YC310_Pro_5B88_260930_043257.csv,8,64,27,26,40766.7,0.123067,4.99855e+06,0.399711,33.4,-0.03,0.566667,-0.00500033,0.0635714,0.521749,0.00214283,0.478251,0.500964,0.267764,0.321585,0.126227,0.252428,0.384756,0.360016,2026-09-30 04:32:57,118,5.7,0.264286,0,0,58.3573,0.229466,0,0.0357143,0.75,0.214286,0,0,-1,-1,0.124286
Green_YC310_Pro_5B88_260930_043457.csv,8,65,29,28,41126.4,0.124505,4.92643e+06,0.385286,33.37,-0.03,0.561667,-0.00500033,0.0613333,0.483161,-0.00223807,0.516839,0.502594,0.252898,0.306719,0.125997,0.2509,0.384756,0.361544,2026-09-30 04:34:57,120,5.7,0.264286,0,0,61.5711,0.269639,0,0,0.933333,0.0666667,0,0,-1,-1,0.119333
Green_YC310_Pro_5B88_260930_043658.csv,8,66,27,23,42232,0.128928,4.94484e+06,0.388968,33.34,-0.03,0.556667,-0.00500033,0.0624,0.501552,0.0010667,0.498448,0.513391,0.261754,0.315575,0.123381,0.249876,0.384756,0.362568,2026-09-30 04:36:58,121,5.7,0.264286,0,0,59.4277,0.242846,0,0,0.88,0.12,0,0,-1,-1,0.118571
Green_YC310_Pro_5B88_260930_043859.csv,8,67,29,23,41650.6,0.126602,4.91826e+06,0.383652,33.31,-0.03,0.551667,-0.00500033,0.06,0.460172,-0.0024,0.539828,0.526609,0.272777,0.326598,0.120765,0.248852,0.384756,0.363592,2026-09-30 04:38:59,121,5.7,0.264286,0,0,61.0098,0.262622,0,0,1,0,0,0,-1,-1,0.111333
Green_YC310_Pro_5B88_260930_044058.csv,8,68,30,27,36691.5,0.106766,4.95244e+06,0.390488,33.28,-0.03,0.546667,-0.00500033,0.0606667,0.471667,0.000666667,0.528333,0.552236,0.402209,0.352225,0.0957672,0.252555,0.384756,0.35989,2026-09-30 04:40:58,119,5.7,0.264286,0,0,65.0289,0.312861,0,0.0333333,0.9,0.0666667,0,0,-1,-1,0.116774
Green_YC310_Pro_5B88_260930_044259.csv,8,69,40,25,23483.4,0.0539336,5.22231e+06,0.444462,33.24,-0.04,0.54,-0.006667,0.0556098,0.384479,-0.00505694,0.615521,0.571959,0.437216,0.371948,0.0897043,0.251733,0.400051,0.376006,2026-09-30 04:42:59,121,5.7,0.264286,0,0,85.0461,0.563076,0,0.219512,0.780488,0,0,0,-1,-1,0.111667
Green_YC310_Pro_5B88_260930_044459.csv,8,70,40,5,39853.1,0.119412,5.79528e+06,0.559056,33.14,-0.1,0.523333,-0.0166667,0.0509091,0.303433,-0.00470071,0.696567,0.573657,0.454983,0.373646,0.0895115,0.246519,0.405816,0.386985,2026-09-30 04:44:59,120,5.7,0.264286,0,0,84.9257,0.561571,0.030303,0.393939,0.575758,0,0,0,-1,-1,0.102105
Green_YC310_Pro_5B88_260930_044659.csv,8,71,31,21,35853.2,0.103413,6.0287e+06,0.605739,33.02,-0.12,0.503333,-0.0199997,0.0625806,0.504666,0.0116715,0.495334,0.562468,0.47275,0.391413,0.0951889,0.239014,0.40503,0.393704,2026-09-30 04:46:59,120,5.6,0.257143,0,0,64.7632,0.30954,0,0.0322581,0.806452,0.16129,0,0,-1,-1,0.134
Green_YC310_Pro_5B88_260930_044858.csv,8,72,33,18,27741.5,0.0709658,4.91049e+06,0.382099,33,-0.02,0.5,-0.003333,0.0606061,0.470622,-0.00197454,0.529378,0.539827,0.400385,0.368773,0.0821293,0.240721,0.386989,0.373956,2026-09-30 04:48:58,119,5.6,0.257143,0,0,70.7143,0.383929,0,0.030303,0.909091,0.0606061,0,0,-1,-1,0.123871
Green_YC310_Pro_5B88_260930_045059.csv,8,73,32,22,30058.3,0.0802332,4.87702e+06,0.375403,33.01,0.01,0.501667,0.00166667,0.0642424,0.533318,0.00363632,0.466682,0.503555,0.37458,0.342968,0.0774951,0.242225,0.364193,0.349656,2026-09-30 04:50:59,121,5.6,0.257143,0,0,67.5581,0.344476,0,0.030303,0.787879,0.121212,0.0606061,0,-1,-1,0.125806
Green_YC310_Pro_5B88_260930_045300.csv,8,74,30,16,29637,0.0785482,4.90915e+06,0.38183,33.05,0.04,0.508333,0.00666633,0.062069,0.495844,-0.00217343,0.504156,0.465682,0.2802,0.305094,0.087048,0.242309,0.333787,0.319166,2026-09-30 04:53:00,121,5.6,0.257143,0,0,62.6305,0.282881,0,0,0.896552,0.103448,0,0,-1,-1,0.126667
Green_YC310_Pro_5B88_260930_045458.csv,8,75,26,22,40164.3,0.120657,4.84238e+06,0.368476,33.11,0.06,0.518333,0.0100003,0.0674074,0.587886,0.00533841,0.412114,0.426207,0.227904,0.265619,0.102363,0.242229,0.305324,0.290783,2026-09-30 04:54:58,118,5.4,0.242857,0,0,57.0593,0.213241,0,0,0.62963,0.37037,0,0,-1,-1,0.138519
Green_YC310_Pro_5B88_260930_045658.csv,8,76,26,24,41544.3,0.126177,4.87149e+06,0.374298,33.15,0.04,0.525,0.006667,0.0711111,0.651743,0.00370371,0.348257,0.429583,0.206997,0.244712,0.114629,0.24174,0.30414,0.290087,2026-09-30 04:56:58,120,5.4,0.242857,0,0,55.0071,0.187589,0,0,0.444444,0.555556,0,0,-1,-1,0.144444
Green_YC310_Pro_5B88_260930_045858.csv,8,77,26,21,38836.9,0.115348,4.86505e+06,0.373009,33.16,0.01,0.526667,0.00166667,0.0614815,0.485715,-0.00962962,0.514285,0.449323,0.195973,0.233689,0.119532,0.24123,0.313942,0.3004,2026-09-30 04:58:58,120,5.4,0.242857,0,0,56.4399,0.205499,0,0,0.925926,0.0740741,0,0,-1,-1,0.135556
Green_YC310_Pro_5B88_260930_050058.csv,8,78,25,24,39174.2,0.116697,4.85835e+06,0.37167,33.17,0.01,0.528333,0.00166633,0.0669231,0.579536,0.00544158,0.420464,0.462907,0.196658,0.234373,0.117071,0.242275,0.321273,0.306685,2026-09-30 05:00:58,120,5.4,0.242857,0,0,54.8246,0.185307,0,0,0.653846,0.346154,0,0,-1,-1,0.136923
Green_YC310_Pro_5B88_260930_050300.csv,8,79,26,25,39698.7,0.118795,4.84106e+06,0.368213,33.16,-0.01,0.526667,-0.00166633,0.0644444,0.536801,-0.00247866,0.463199,0.453971,0.199168,0.236883,0.113176,0.242573,0.316812,0.301927,2026-09-30 05:03:00,122,5.4,0.242857,0,0,55.4765,0.193456,0,0,0.777778,0.222222,0,0,-1,-1,0.135556
Green_YC310_Pro_5B88_260930_050457.csv,8,80,27,26,37502.3,0.110009,4.78998e+06,0.357997,33.15,-0.01,0.525,-0.001667,0.0635714,0.521749,-0.000872971,0.478251,0.481286,0.202468,0.240183,0.109281,0.24287,0.332716,0.317534,2026-09-30 05:04:57,117,5.4,0.242857,0,0,57.0423,0.213029,0,0,0.821429,0.178571,0,0,-1,-1,0.13
Green_YC310_Pro_5B88_260930_050657.csv,8,81,32,14,34941.6,0.0997663,5.48733e+06,0.497465,33.13,-0.02,0.521667,-0.00333333,0.0642424,0.533318,0.000671024,0.466682,0.483078,0.246864,0.241975,0.118193,0.239937,0.338085,0.325836,2026-09-30 05:06:57,120,5.4,0.242857,0,0,68.3761,0.354701,0,0.0606061,0.69697,0.212121,0.030303,0,-1,-1,0.132593
Green_YC310_Pro_5B88_260930_050902.csv,8,82,25,24,46382.9,0.145532,5.49403e+06,0.498806,33.11,-0.02,0.518333,-0.00333367,0.0607692,0.473435,-0.00347317,0.526565,0.480895,0.292594,0.287705,0.124428,0.237569,0.341339,0.331458,2026-09-30 05:09:02,125,5.4,0.242857,0,0,54.1908,0.177385,0,0,0.961538,0.0384615,0,0,-1,-1,0.133846
Green_YC310_Pro_5B88_260930_051059.csv,8,83,34,11,36719.9,0.10688,5.63674e+06,0.527347,33.08,-0.03,0.513333,-0.00499967,0.064375,0.535603,0.0036058,0.464397,0.482341,0.2818,0.276912,0.126385,0.235579,0.34225,0.334358,2026-09-30 05:10:59,117,5.4,0.242857,0,0,73.0659,0.413324,0,0.09375,0.625,0.25,0.03125,0,-1,-1,0.123571
Green_YC310_Pro_5B88_260930_051259.csv,8,84,27,25,44643.1,0.138573,5.71986e+06,0.543972,33.06,-0.02,0.51,-0.003333,0.065,0.546379,0.000625,0.453621,0.490063,0.277359,0.27247,0.126742,0.234453,0.346871,0.340106,2026-09-30 05:12:59,120,5.4,0.242857,0,0,58.952,0.2369,0,0,0.75,0.25,0,0,-1,-1,0.134286
Green_YC310_Pro_5B88_260930_051457.csv,8,85,27,26,46651,0.146604,5.64748e+06,0.529496,33.06,0,0.51,3.33067e-16,0.0621429,0.497118,-0.00285714,0.502882,0.494933,0.296562,0.27734,0.124391,0.23495,0.351198,0.343937,2026-09-30 05:14:57,118,5.4,0.242857,0,0,59.5588,0.244485,0,0,0.892857,0.107143,0,0,-1,-1,0.127143
Green_YC310_Pro_5B88_260930_051658.csv,8,86,31,13,46021.2,0.144085,5.6641e+06,0.53282,33.05,-0.01,0.508333,-0.00166667,0.060625,0.470948,-0.0015179,0.529052,0.495067,0.316297,0.277473,0.122039,0.234921,0.35325,0.346018,2026-09-30 05:16:58,121,5.4,0.242857,0,0,66.2393,0.327991,0,0.0625,0.84375,0.09375,0,0,-1,-1,0.124375
Green_YC310_Pro_5B88_260930_051859.csv,8,87,33,29,34368.6,0.0974744,5.68185e+06,0.536371,33.05,0,0.508333,3.33333e-07,0.0658824,0.561592,0.00525735,0.438408,0.493586,0.367011,0.328187,0.118567,0.235654,0.356647,0.348681,2026-09-30 05:18:59,121,5.4,0.242857,0,0,70.1133,0.376416,0,0,0.705882,0.294118,0,0,-1,-1,0.129375
Green_YC310_Pro_5B88_260930_052100.csv,8,88,34,24,44046.8,0.136187,5.54484e+06,0.508969,33.04,-0.01,0.506667,-0.00166633,0.0628571,0.509433,-0.00302526,0.490567,0.498674,0.357857,0.319033,0.116705,0.235521,0.359067,0.351233,2026-09-30 05:21:00,121,5.4,0.242857,0,0,71.73,0.396625,0,0.0285714,0.8,0.171429,0,0,-1,-1,0.132941
Green_YC310_Pro_5B88_260930_052257.csv,8,89,30,28,38618.7,0.114475,5.63535e+06,0.52707,33.04,0,0.506667,-3.33333e-07,0.0613333,0.483161,-0.00152377,0.516839,0.503341,0.350264,0.31144,0.116454,0.235574,0.361047,0.353161,2026-09-30 05:22:57,117,5.4,0.242857,0,0,64.7948,0.309935,0,0.0333333,0.866667,0.1,0,0,-1,-1,0.125161
Green_YC310_Pro_5B88_260930_052459.csv,8,90,33,28,34675.3,0.0987014,5.62128e+06,0.524255,33.04,0,0.506667,-3.33333e-07,0.0629412,0.510882,0.00160788,0.489118,0.500017,0.34834,0.309516,0.0942793,0.240257,0.359026,0.346457,2026-09-30 05:24:59,122,5.3,0.235714,0,0,70.7648,0.38456,0,0.0294118,0.794118,0.176471,0,0,-1,-1,0.126061
Green_YC310_Pro_5B88_260930_052658.csv,8,91,33,31,27415.4,0.0696616,5.66926e+06,0.533851,33.03,-0.01,0.505,-0.001667,0.0617647,0.490598,-0.00117649,0.509402,0.494095,0.350525,0.311701,0.10339,0.237808,0.356225,0.346105,2026-09-30 05:26:58,119,5.3,0.235714,0,0,70.3625,0.379531,0,0.0294118,0.852941,0.117647,0,0,-1,-1,0.126471
Green_YC310_Pro_5B88_260930_052858.csv,8,92,27,14,31425.4,0.0857018,5.79466e+06,0.558932,33.02,-0.01,0.503333,-0.00166667,0.065,0.546379,0.0032353,0.453621,0.465265,0.287483,0.282871,0.1125,0.235358,0.335161,0.32749,2026-09-30 05:28:58,120,5.3,0.235714,0,0,58.1897,0.227371,0,0,0.75,0.25,0,0,-1,-1,0.138519
Green_YC310_Pro_5B88_260930_053100.csv,8,93,26,21,48834.5,0.155338,5.78027e+06,0.556054,33,-0.02,0.5,-0.003333,0.062963,0.511258,-0.00203704,0.488742,0.436435,0.25706,0.254041,0.122568,0.232181,0.317148,0.312655,2026-09-30 05:31:00,122,5.3,0.235714,0,0,55.6348,0.195435,0,0,0.851852,0.148148,0,0,-1,-1,0.14
Green_YC310_Pro_5B88_260930_053259.csv,8,94,26,22,34966.6,0.0998665,5.94096e+06,0.588191,32.99,-0.01,0.498333,-0.00166667,0.0696296,0.626201,0.00666663,0.373799,0.426731,0.226637,0.244336,0.122118,0.231751,0.309512,0.305449,2026-09-30 05:32:59,119,5.3,0.235714,0,0,56.8928,0.21116,0,0,0.518519,0.481481,0,0,-1,-1,0.145385
Green_YC310_Pro_5B88_260930_053459.csv,8,95,29,21,37425.1,0.1097,6.05965e+06,0.61193,32.97,-0.02,0.495,-0.003333,0.0689655,0.61475,-0.000664083,0.38525,0.417025,0.218964,0.236663,0.11115,0.233016,0.304105,0.298776,2026-09-30 05:34:59,120,5.3,0.235714,0,0,60.6272,0.25784,0,0,0.551724,0.448276,0,0,-1,-1,0.145
Green_YC310_Pro_5B88_260930_053701.csv,8,96,26,24,40608.5,0.122434,5.00837e+06,0.401674,32.95,-0.02,0.491667,-0.00333333,0.0646154,0.539748,-0.00435012,0.460252,0.435422,0.211788,0.229487,0.107661,0.232702,0.314476,0.309462,2026-09-30 05:37:01,122,5.3,0.235714,0,0,53.7931,0.172414,0,0,0.769231,0.230769,0,0,-1,-1,0.137692
Green_YC310_Pro_5B88_260930_053858.csv,8,97,27,21,32349.4,0.0893977,5.08026e+06,0.416051,32.92,-0.03,0.486667,-0.00500033,0.0664286,0.57101,0.00181317,0.42899,0.451498,0.214086,0.231784,0.107293,0.231203,0.324669,0.321154,2026-09-30 05:38:58,117,5.3,0.235714,0,0,59.5588,0.244485,0,0,0.678571,0.321429,0,0,-1,-1,0.1336
Green_YC310_Pro_5B88_260930_054058.csv,8,98,25,22,35261.7,0.101047,5.0365e+06,0.4073,32.9,-0.02,0.483333,-0.00333367,0.0638462,0.526485,-0.00258245,0.473515,0.465251,0.219771,0.23747,0.110048,0.22957,0.333512,0.331629,2026-09-30 05:40:58,120,5.3,0.235714,0,0,55.5967,0.194959,0,0,0.807692,0.192308,0,0,-1,-1,0.130769
Green_YC310_Pro_5B88_260930_054301.csv,8,99,28,25,42674.6,0.130699,4.9175e+06,0.3835,32.87,-0.03,0.478333,-0.00499967,0.0622222,0.498487,-0.00162398,0.501513,0.462371,0.220063,0.237762,0.109772,0.228052,0.332923,0.332559,2026-09-30 05:43:01,123,5.3,0.235714,0,0,59.5745,0.244681,0,0,0.888889,0.111111,0,0,-1,-1,0.127407
Green_YC310_Pro_5B88_260930_054457.csv,8,100,26,25,35929.3,0.103717,5.02403e+06,0.404806,32.83,-0.04,0.471667,-0.00666633,0.0653846,0.553011,0.00316242,0.446989,0.459491,0.232619,0.250318,0.109496,0.226008,0.33369,0.335369,2026-09-30 05:44:57,116,5.3,0.235714,0,0,55.6745,0.195931,0,0,0.730769,0.269231,0,0,-1,-1,0.14
Green_YC310_Pro_5B88_260930_054658.csv,8,101,30,13,32073.1,0.0882924,5.1457e+06,0.429141,32.78,-0.05,0.463333,-0.00833367,0.0670968,0.582531,0.00171217,0.417469,0.444676,0.238734,0.256433,0.105595,0.224205,0.32757,0.331053,2026-09-30 05:46:58,121,5.3,0.235714,0,0,63.5145,0.293931,0,0,0.645161,0.354839,0,0,-1,-1,0.128
Green_YC310_Pro_5B88_260930_054859.csv,8,102,24,22,39749.2,0.118997,5.19572e+06,0.439145,32.75,-0.03,0.458333,-0.00499967,0.0648,0.542931,-0.0022968,0.457069,0.426241,0.218912,0.237998,0.0968403,0.224477,0.316595,0.319805,2026-09-30 05:48:59,121,5.3,0.235714,0,0,53.6913,0.171141,0,0,0.76,0.24,0,0,-1,-1,0.1488
Green_YC310_Pro_5B88_260930_055100.csv,8,103,28,13,25268.7,0.0610748,5.36993e+06,0.473985,32.73,-0.02,0.455,-0.003333,0.0696552,0.626641,0.00485517,0.373359,0.402747,0.204642,0.223727,0.086126,0.225688,0.302915,0.304915,2026-09-30 05:51:00,121,5.3,0.235714,0,0,59.1549,0.239436,0,0,0.517241,0.482759,0,0,-1,-1,0.147586
Green_YC310_Pro_5B88_260930_055300.csv,8,104,25,13,31444.4,0.0857777,5.31229e+06,0.462458,32.72,-0.01,0.453333,-0.00166667,0.0676923,0.592798,-0.00196289,0.407202,0.382163,0.203348,0.222433,0.0783063,0.226814,0.291614,0.292487,2026-09-30 05:53:00,120,5.3,0.235714,0,0,53.8406,0.173008,0,0,0.615385,0.384615,0,0,-1,-1,0.145
Green_YC310_Pro_5B88_260930_055502.csv,8,105,25,21,32016.6,0.0880663,5.272e+06,0.4544,32.7,-0.02,0.45,-0.003333,0.0715385,0.659111,0.00384616,0.340889,0.388045,0.189677,0.208762,0.093313,0.222594,0.294435,0.299529,2026-09-30 05:55:02,122,5.4,0.242857,0,0,53.3808,0.16726,0,0,0.423077,0.576923,0,0,-1,-1,0.153043
Green_YC310_Pro_5B88_260930_055659.csv,8,106,26,24,36523.7,0.106095,5.18358e+06,0.436716,32.68,-0.02,0.446667,-0.00333333,0.0644444,0.536801,-0.00709406,0.463199,0.413465,0.189886,0.208971,0.0954176,0.221099,0.309354,0.315943,2026-09-30 05:56:59,117,5.4,0.242857,0,0,55.8739,0.198424,0,0,0.777778,0.222222,0,0,-1,-1,0.141481
Green_YC310_Pro_5B88_260930_055859.csv,8,107,26,23,31711.2,0.0868449,5.21599e+06,0.443199,32.66,-0.02,0.443333,-0.00333367,0.0688889,0.613429,0.00444449,0.386571,0.421802,0.205258,0.217309,0.0942802,0.220288,0.315971,0.323371,2026-09-30 05:58:59,120,5.4,0.242857,0,0,55.6348,0.195435,0,0,0.555556,0.444444,0,0,-1,-1,0.142963
Green_YC310_Pro_5B88_260930_060058.csv,8,108,26,25,34334,0.0973361,5.1811e+06,0.43622,32.66,0,0.443333,3.33333e-07,0.0666667,0.575115,-0.00222223,0.424885,0.415637,0.221916,0.233966,0.0865123,0.221928,0.313906,0.319666,2026-09-30 06:00:58,119,5.4,0.242857,0,0,56.8513,0.210641,0,0,0.666667,0.333333,0,0,-1,-1,0.138519
Green_YC310_Pro_5B88_260930_060300.csv,8,109,28,8,26133,0.0645322,5.34132e+06,0.468263,32.65,-0.01,0.441667,-0.00166633,0.0655172,0.555297,-0.00114946,0.444703,0.418093,0.216226,0.228276,0.082546,0.22224,0.315141,0.320588,2026-09-30 06:03:00,122,5.4,0.242857,0,0,59.8717,0.248396,0,0,0.724138,0.275862,0,0,-1,-1,0.141429
Green_YC310_Pro_5B88_260930_060500.csv,8,110,25,23,33543.5,0.0941738,5.26138e+06,0.452275,32.64,-0.01,0.44,-0.001667,0.0684615,0.606061,0.00294434,0.393939,0.423945,0.200638,0.212688,0.0857696,0.221034,0.317453,0.324106,2026-09-30 06:05:00,120,5.4,0.242857,0,0,54.2692,0.178365,0,0,0.576923,0.423077,0,0,-1,-1,0.143846
Green_YC310_Pro_5B88_260930_060657.csv,8,111,26,24,36751.8,0.107007,5.21367e+06,0.442733,32.63,-0.01,0.438333,-0.00166667,0.0644444,0.536801,-0.00401706,0.463199,0.42992,0.189644,0.201694,0.0958828,0.218373,0.320216,0.32953,2026-09-30 06:06:57,117,5.4,0.242857,0,0,55.794,0.197425,0,0,0.777778,0.222222,0,0,-1,-1,0.137778
Green_YC310_Pro_5B88_260930_060858.csv,8,112,26,23,33717.9,0.0948717,5.24085e+06,0.44817,32.62,-0.01,0.436667,-0.00166633,0.0681481,0.600658,0.00370375,0.399342,0.421692,0.193141,0.205191,0.0999031,0.216999,0.316233,0.326922,2026-09-30 06:08:58,121,5.4,0.242857,0,0,55.2799,0.190999,0,0,0.592593,0.407407,0,0,-1,-1,0.142222
Green_YC310_Pro_5B88_260930_061058.csv,8,113,26,25,35715.6,0.102862,5.1982e+06,0.43964,32.61,-0.01,0.435,-0.001667,0.0666667,0.575115,-0.00148143,0.424885,0.405155,0.199013,0.211064,0.0901539,0.218532,0.307795,0.316951,2026-09-30 06:10:58,120,5.7,0.264286,0,0,55.2799,0.190999,0,0,0.666667,0.333333,0,0,-1,-1,0.14
Green_YC310_Pro_5B88_260930_061258.csv,8,114,27,26,33650.7,0.0946028,5.21039e+06,0.442077,32.61,0,0.435,-1.11022e-16,0.0703704,0.638972,0.00370367,0.361028,0.391237,0.204995,0.217045,0.0727281,0.222212,0.300499,0.305975,2026-09-30 06:12:58,120,5.7,0.264286,0,0,57.2034,0.215043,0,0,0.481481,0.518519,0,0,-1,-1,0.137778
Green_YC310_Pro_5B88_260930_061458.csv,8,115,31,5,20648.6,0.0425942,5.33077e+06,0.466154,32.61,0,0.435,-1.11022e-16,0.065625,0.557155,-0.0047454,0.442845,0.385716,0.222285,0.234335,0.0757874,0.221566,0.298848,0.30497,2026-09-30 06:14:58,120,5.7,0.264286,0,0,68.082,0.351025,0,0.0625,0.65625,0.21875,0.0625,0,-1,-1,0.124
Green_YC310_Pro_5B88_260930_061657.csv,8,116,25,20,34068.5,0.0962741,5.53503e+06,0.507007,32.59,-0.02,0.431667,-0.00333333,0.0707692,0.645849,0.00514423,0.354151,0.383739,0.234716,0.246767,0.0788467,0.219869,0.299443,0.307263,2026-09-30 06:16:57,119,5.7,0.264286,0,0,54.9451,0.186814,0,0,0.461538,0.538462,0,0,-1,-1,0.16
Green_YC310_Pro_5B88_260930_061858.csv,8,117,26,24,34418,0.0976718,5.48532e+06,0.497064,32.59,0,0.431667,-3.33333e-07,0.0696296,0.626201,-0.00113957,0.373799,0.385307,0.21767,0.22972,0.105174,0.214309,0.298901,0.312279,2026-09-30 06:18:58,121,5.7,0.264286,0,0,55.4765,0.193456,0,0,0.518519,0.481481,0,0,-1,-1,0.146667
Green_YC310_Pro_5B88_260930_062059.csv,8,118,27,21,40393.8,0.121575,5.64756e+06,0.529513,32.58,-0.01,0.43,-0.001667,0.0696296,0.626201,2.96296e-08,0.373799,0.43576,0.205629,0.21768,0.112797,0.212174,0.326485,0.341999,2026-09-30 06:20:59,121,5.7,0.264286,0,0,56.922,0.211525,0,0,0.518519,0.481481,0,0,-1,-1,0.140769
Green_YC310_Pro_5B88_260930_062258.csv,8,119,26,25,37910.7,0.111643,5.61163e+06,0.522325,32.56,-0.02,0.426667,-0.00333333,0.0659259,0.562344,-0.00370367,0.437656,0.424885,0.207649,0.2197,0.11479,0.210702,0.32123,0.338215,2026-09-30 06:22:58,119,5.7,0.264286,0,0,56.4808,0.20601,0,0,0.703704,0.296296,0,0,-1,-1,0.140741
Green_YC310_Pro_5B88_260930_062457.csv,8,120,27,24,38574.2,0.114297,5.60858e+06,0.521715,32.55,-0.01,0.425,-0.001667,0.0644444,0.536801,-0.00148146,0.463199,0.441913,0.205685,0.217736,0.110765,0.211027,0.330935,0.347597,2026-09-30 06:24:57,119,6.1,0.292857,0,0,56.5642,0.207053,0,0,0.777778,0.222222,0,0,-1,-1,0.134815
Green_YC310_Pro_5B88_260930_062659.csv,8,121,26,25,35705.9,0.102824,5.65599e+06,0.531197,32.56,0.01,0.426667,0.00166667,0.0659259,0.562344,0.00148153,0.437656,0.450427,0.203994,0.216044,0.110676,0.211571,0.335229,0.351346,2026-09-30 06:26:59,122,6.1,0.292857,0,0,56.1151,0.201439,0,0,0.703704,0.296296,0,0,-1,-1,0.137037
Green_YC310_Pro_5B88_260930_062858.csv,8,122,26,25,38019,0.112076,5.65426e+06,0.530851,32.56,0,0.426667,-3.33333e-07,0.0651852,0.549572,-0.000740715,0.450428,0.450427,0.20728,0.219331,0.114906,0.210678,0.335503,0.352513,2026-09-30 06:28:58,119,6.1,0.292857,0,0,56.0748,0.200935,0,0,0.740741,0.259259,0,0,-1,-1,0.138519
Green_YC310_Pro_5B88_260930_063057.csv,8,123,26,25,41747.2,0.126989,5.82429e+06,0.564857,32.56,0,0.426667,-3.33333e-07,0.0644444,0.536801,-0.000740756,0.463199,0.450276,0.209049,0.2211,0.111756,0.211343,0.335565,0.35191,2026-09-30 06:30:57,119,6.1,0.292857,0,0,57.3529,0.216911,0,0,0.777778,0.222222,0,0,-1,-1,0.131852
Green_YC310_Pro_5B88_260930_063258.csv,8,124,26,24,35114.9,0.10046,4.99488e+06,0.398975,32.57,0.01,0.428333,0.00166633,0.0681481,0.600658,0.00370375,0.399342,0.450124,0.210128,0.222179,0.108605,0.212534,0.335237,0.350391,2026-09-30 06:32:58,121,6.1,0.292857,0,0,56.1151,0.201439,0,0,0.592593,0.407407,0,0,-1,-1,0.137692
Green_YC310_Pro_5B88_260930_063500.csv,8,125,27,26,34591.5,0.0983659,4.97873e+06,0.395746,32.58,0.01,0.43,0.001667,0.0657143,0.558695,-0.00243381,0.441305,0.442826,0.212035,0.224085,0.0973121,0.215444,0.330975,0.343219,2026-09-30 06:35:00,122,6.1,0.292857,0,0,57.163,0.214537,0,0,0.714286,0.285714,0,0,-1,-1,0.134286
Green_YC310_Pro_5B88_260930_063658.csv,8,126,27,24,33277.6,0.0931104,4.98499e+06,0.396999,32.59,0.01,0.431667,0.00166667,0.0657143,0.558695,-1.42857e-08,0.441305,0.439252,0.219465,0.231516,0.0979678,0.215831,0.32926,0.341117,2026-09-30 06:36:58,118,6.1,0.292857,0,0,57.6102,0.220127,0,0,0.714286,0.285714,0,0,-1,-1,0.131429
Green_YC310_Pro_5B88_260930_063859.csv,8,127,27,25,35870.4,0.103481,4.95861e+06,0.391721,32.59,0,0.431667,-3.33333e-07,0.0628571,0.509433,-0.00285716,0.490567,0.435148,0.215603,0.227654,0.0980169,0.215821,0.32664,0.338507,2026-09-30 06:38:59,121,6.1,0.292857,0,0,57.8985,0.223731,0,0,0.857143,0.142857,0,0,-1,-1,0.137143
Green_YC310_Pro_5B88_260930_064058.csv,8,128,27,17,33562.8,0.094251,5.09086e+06,0.418171,32.6,0.01,0.433333,0.00166633,0.0664286,0.57101,0.00357147,0.42899,0.424885,0.213414,0.225465,0.0974592,0.216464,0.320377,0.331601,2026-09-30 06:40:58,119,6.2,0.3,0,0,56.2891,0.203614,0,0,0.678571,0.321429,0,0,-1,-1,0.143571
Green_YC310_Pro_5B88_260930_064258.csv,8,129,27,3,32859.4,0.0914374,5.53865e+06,0.50773,32.6,0,0.433333,3.33333e-07,0.0666667,0.575115,0.000238067,0.424885,0.425517,0.211277,0.223327,0.095543,0.216868,0.320552,0.331372,2026-09-30 06:42:58,120,6.2,0.3,0,0,57.8158,0.222698,0,0,0.666667,0.333333,0,0,-1,-1,0.14
Green_YC310_Pro_5B88_260930_064458.csv,8,130,26,20,32992.1,0.0919683,5.55787e+06,0.511575,32.59,-0.01,0.431667,-0.00166633,0.0637037,0.524029,-0.002963,0.475971,0.422675,0.207518,0.220485,0.0936268,0.216748,0.318981,0.329921,2026-09-30 06:44:58,120,6.2,0.3,0,0,56.0345,0.200431,0,0,0.814815,0.185185,0,0,-1,-1,0.138519
Green_YC310_Pro_5B88_260930_064658.csv,8,131,26,18,34368.7,0.0974747,5.52709e+06,0.505417,32.58,-0.01,0.43,-0.001667,0.0669231,0.579536,0.00321938,0.420464,0.418418,0.193575,0.216228,0.0958974,0.215743,0.315769,0.327714,2026-09-30 06:46:58,120,6.2,0.3,0,0,55.9541,0.199426,0,0,0.653846,0.346154,0,0,-1,-1,0.152174
Green_YC310_Pro_5B88_260930_064859.csv,8,132,26,21,34562.3,0.0982492,5.51454e+06,0.502908,32.56,-0.02,0.426667,-0.00333333,0.0674074,0.587886,0.000484307,0.412114,0.406383,0.199305,0.221958,0.0855312,0.216881,0.310173,0.320981,2026-09-30 06:48:59,121,6.2,0.3,0,0,54.4693,0.180866,0,0,0.62963,0.37037,0,0,-1,-1,0.145185
Green_YC310_Pro_5B88_260930_065058.csv,8,133,27,4,25611.7,0.0624469,5.83235e+06,0.56647,32.54,-0.02,0.423333,-0.00333367,0.0688889,0.613429,0.00148149,0.386571,0.418106,0.205035,0.227688,0.0802923,0.216936,0.317882,0.328634,2026-09-30 06:50:58,119,6.2,0.3,0,0,56.882,0.211025,0,0,0.555556,0.444444,0,0,-1,-1,0.143846
Green_YC310_Pro_5B88_260930_065259.csv,8,134,27,20,34506.5,0.0980261,5.73784e+06,0.547567,32.53,-0.01,0.421667,-0.00166633,0.0733333,0.690057,0.00444443,0.309943,0.429829,0.248643,0.239411,0.0804797,0.216371,0.328414,0.339731,2026-09-30 06:52:59,121,6.2,0.3,0,0,57.8571,0.223214,0,0,0.333333,0.666667,0,0,-1,-1,0.1552
Green_YC310_Pro_5B88_260930_065458.csv,8,135,30,22,25854.9,0.0634198,5.78166e+06,0.556332,32.5,-0.03,0.416667,-0.00500033,0.063871,0.526913,-0.00946233,0.473087,0.439864,0.258626,0.249395,0.0815404,0.21457,0.335865,0.348983,2026-09-30 06:54:58,119,6.2,0.3,0,0,64.9351,0.311689,0,0,0.806452,0.193548,0,0,-1,-1,0.14
Green_YC310_Pro_5B88_260930_065658.csv,8,136,27,26,35323.9,0.101296,5.67221e+06,0.534442,32.48,-0.02,0.413333,-0.00333367,0.0671429,0.583325,0.00327186,0.416675,0.44749,0.251085,0.241854,0.0888345,0.211979,0.340174,0.355883,2026-09-30 06:56:58,120,6.2,0.3,0,0,57.2438,0.215548,0,0,0.642857,0.357143,0,0,-1,-1,0.147857
Green_YC310_Pro_5B88_260930_065858.csv,8,137,29,23,32331.5,0.089326,5.70258e+06,0.540516,32.46,-0.02,0.41,-0.003333,0.0646667,0.540632,-0.00247623,0.459368,0.452709,0.236889,0.227658,0.0941842,0.209799,0.34258,0.36047,2026-09-30 06:58:58,120,5.7,0.264286,0,0,60.9244,0.261555,0,0,0.766667,0.233333,0,0,-1,-1,0.135385
Green_YC310_Pro_5B88_260930_070058.csv,8,138,27,24,34197.2,0.0967888,4.74707e+06,0.349413,32.43,-0.03,0.405,-0.005,0.062963,0.511258,-0.00170374,0.488742,0.453863,0.233565,0.224334,0.0896399,0.209182,0.34395,0.362456,2026-09-30 07:00:58,120,5.7,0.264286,0,0,57.6102,0.220127,0,0,0.851852,0.148148,0,0,-1,-1,0.1264
Green_YC310_Pro_5B88_260930_070258.csv,8,139,27,23,29133.5,0.076534,4.84559e+06,0.369118,32.41,-0.02,0.401667,-0.00333333,0.0651852,0.549572,0.00222219,0.450428,0.455017,0.271816,0.225488,0.0828049,0.209574,0.34845,0.366564,2026-09-30 07:02:58,120,5.7,0.264286,0,0,56.446,0.205575,0,0,0.740741,0.259259,0,0,-1,-1,0.138519
Green_YC310_Pro_5B88_260930_070457.csv,8,140,31,29,28773,0.075092,4.76614e+06,0.353227,32.39,-0.02,0.398333,-0.00333367,0.066875,0.578707,0.0016898,0.421293,0.467616,0.310068,0.238087,0.0483944,0.215789,0.359359,0.371258,2026-09-30 07:04:57,119,5.5,0.25,0,0,64.4491,0.305614,0,0,0.65625,0.34375,0,0,-1,-1,0.140645
Green_YC310_Pro_5B88_260930_070658.csv,8,141,37,25,20331.9,0.0413274,4.53604e+06,0.307207,32.36,-0.03,0.393333,-0.00499967,0.0583333,0.431437,-0.00854167,0.568563,0.489081,0.419015,0.259552,0.0388065,0.216237,0.381456,0.392907,2026-09-30 07:06:58,121,5.5,0.25,0,0,79.5699,0.494624,0,0.111111,0.861111,0.0277778,0,0,-1,-1,0.120556
Green_YC310_Pro_5B88_260930_070907.csv,8,142,31,11,7556.77,0,4.09829e+06,0.219657,32.34,-0.02,0.39,-0.003333,0.0546667,0.368218,-0.00366663,0.631782,0.532199,0.427298,0.267834,0.0323277,0.216555,0.406959,0.418093,2026-09-30 07:09:07,129,5.5,0.25,0,0,82.5933,0.532416,0,0.266667,0.733333,0,0,0,-1,-1,0.115
Green_YC310_Pro_5B88_260930_071059.csv,8,143,36,14,15286.2,0.0211448,4.0669e+06,0.21338,32.3,-0.04,0.383333,-0.00666667,0.0542857,0.36165,-0.000380986,0.63835,0.551464,0.435581,0.276117,0.0258488,0.215821,0.419771,0.431638,2026-09-30 07:10:59,112,5.5,0.25,0,0,76.5415,0.456769,0,0.285714,0.714286,0,0,0,-1,-1,0.106667
Green_YC310_Pro_5B88_260930_071257.csv,8,144,31,15,22924.4,0.0516977,4.63132e+06,0.326265,32.19,-0.11,0.365,-0.018333,0.0630769,0.513223,0.00879122,0.486777,0.534086,0.407455,0.25874,0.0331601,0.208496,0.411363,0.430554,2026-09-30 07:12:57,118,5.5,0.25,0,0,67.0996,0.338745,0,0.153846,0.576923,0.230769,0.0384615,0,-1,-1,0.158095
Green_YC310_Pro_5B88_260930_071458.csv,8,145,32,15,20654.4,0.0426175,4.64108e+06,0.328216,32.15,-0.04,0.358333,-0.00666667,0.0636364,0.522868,0.000559464,0.477132,0.472093,0.379329,0.230614,0.0404713,0.204851,0.375637,0.398474,2026-09-30 07:14:58,121,5.5,0.25,0,0,67.701,0.346262,0,0.0909091,0.636364,0.272727,0,0,-1,-1,0.139333
Green_YC310_Pro_5B88_260930_071659.csv,8,146,34,9,17311.2,0.0292449,4.84393e+06,0.368787,32.08,-0.07,0.346667,-0.0116663,0.0657143,0.558695,0.00207789,0.441305,0.408091,0.364953,0.216238,0.040604,0.201144,0.340931,0.367475,2026-09-30 07:16:59,121,5.5,0.25,0,0,73.5931,0.419914,0.0357143,0.0357143,0.607143,0.25,0.0714286,0,-1,-1,0.144545
Green_YC310_Pro_5B88_260930_071858.csv,8,147,30,7,23024,0.0520959,4.99198e+06,0.398396,32.07,-0.01,0.345,-0.001667,0.0735714,0.694163,0.00785713,0.305837,0.388708,0.360919,0.212204,0.0416218,0.200404,0.330074,0.357358,2026-09-30 07:18:58,119,5.5,0.25,0,0,63.6492,0.295615,0,0.0714286,0.428571,0.25,0.25,0,-1,-1,0.141667
Green_YC310_Pro_5B88_260930_072058.csv,8,148,30,7,20427.1,0.0417082,4.86014e+06,0.372028,32.05,-0.02,0.341667,-0.00333333,0.0776923,0.765212,0.00412091,0.234788,0.369325,0.367228,0.218513,0.0435246,0.198951,0.320412,0.349148,2026-09-30 07:20:58,120,5.5,0.25,0,0,64.4238,0.305297,0.0384615,0.0384615,0.0769231,0.692308,0.153846,0,-1,-1,0.145882
Green_YC310_Pro_5B88_260930_072300.csv,8,149,35,10,18738.3,0.0349533,4.92075e+06,0.38415,32.07,0.02,0.345,0.003333,0.0662069,0.567188,-0.0114854,0.432812,0.384755,0.38665,0.233943,0.0526964,0.198065,0.330004,0.359627,2026-09-30 07:23:00,122,5.5,0.25,0,0,75.1073,0.438841,0,0.103448,0.517241,0.344828,0.0344828,0,-1,-1,0.144762
Green_YC310_Pro_5B88_260930_072458.csv,8,150,34,7,29902.8,0.0796112,5.03526e+06,0.407052,32.15,0.08,0.358333,0.0133333,0.069,0.615345,0.0027931,0.384655,0.400185,0.406071,0.249374,0.0606015,0.2006,0.337596,0.364684,2026-09-30 07:24:58,118,5.5,0.25,0,0,71.2291,0.390364,0,0.3,0.2,0.25,0.25,0,-1,-1,0.1
Green_YC310_Pro_5B88_260930_072658.csv,8,151,33,5,24313.3,0.0572531,4.95249e+06,0.390498,32.25,0.1,0.375,0.016667,0.0690909,0.616912,9.09091e-05,0.383088,0.35786,0.363882,0.207184,0.0672399,0.204453,0.307046,0.330281,2026-09-30 07:26:58,120,5.5,0.25,0,0,71.1207,0.389009,0,0.136364,0.409091,0.318182,0.136364,0,-1,-1,0.16
Green_YC310_Pro_5B88_260930_072900.csv,8,152,30,21,23717.2,0.0548687,4.99308e+06,0.398617,32.34,0.09,0.39,0.015,0.0735714,0.694163,0.00448053,0.305837,0.329336,0.357199,0.200501,0.0620921,0.210269,0.287516,0.304934,2026-09-30 07:29:00,122,5.5,0.25,0,0,64.9819,0.312274,0,0,0.428571,0.464286,0.107143,0,-1,-1,0.152174
Green_YC310_Pro_5B88_260930_073057.csv,8,153,33,6,26041.9,0.0641676,4.91813e+06,0.383626,32.36,0.02,0.393333,0.00333333,0.0725,0.67569,-0.0010714,0.32431,0.32431,0.395441,0.238744,0.0641676,0.210882,0.287221,0.304026,2026-09-30 07:30:57,117,5.5,0.25,0,0,71.6353,0.395441,0,0.166667,0.25,0.375,0.208333,0,-1,-1,0.164706
