Sheet Name,Segment,Index,total_beat_count,Sel_Min,diff,diff_n,mean,mean_n,temp,temp_raw_diff,temp_n,temp_diff,rise_low,rise_low_n,rise_low_diff,rise_low_n_inv,rise_low_n_inv_center,HR_n_center,HR_n_center_lim,diff_n_center,diff_anker,rl_inv_corr,inv_corr,datetime,time_gap_seconds,CGM,CGM_n,SMBG,SMBG_n,HR,HR_n,r20,r40,r60,r80,r100,time_gap_state,time_gap_slot,time_gap_offset_s,rise_low_50
Green_YC310_Pro_5B88_261010_123056.csv,3,1,26,12,44604,0.138416,5.66794e+06,0.533588,33.18,0,0.53,0,0.0539678,0.356169,0,0.643831,0.643831,0.560936,0.560936,0.138416,0.238294,0.236537,0.25,2026-10-10 12:30:56,0,4.8,0.2,5.5,0.25,84.8749,0.560936,0,0.208333,0.5,0.25,0.0416667,1,0,0,0.138824
Green_YC310_Pro_5B88_261010_123325.csv,3,2,23,4,67337.9,0.229352,5.49955e+06,0.499909,33.13,-0.05,0.521667,-0.00833333,0.0485456,0.262683,-0.00542219,0.737317,0.664258,0.434036,0.434036,0.184639,0.225906,0.236537,0.271118,2026-10-10 12:33:25,149,5.4,0.242857,0,0,74.5946,0.432432,0,0.176471,0.764706,0.0588235,0,1,1,0,0.121818
Green_YC310_Pro_5B88_261010_123554.csv,3,3,19,8,45359.3,0.141437,5.37754e+06,0.475508,33.08,-0.05,0.513333,-0.00833367,0.0603479,0.466171,0.0118023,0.533829,0.611627,0.433011,0.433011,0.211646,0.217575,0.236537,0.267391,2026-10-10 12:35:54,149,5.4,0.242857,0,0,64.6992,0.30874,0,0,0.5,0.5,0,1,2,0,0.1525
Green_YC310_Pro_5B88_261010_123826.csv,3,4,20,12,64930.5,0.219722,5.56521e+06,0.513043,33.13,0.05,0.521667,0.00833367,0.0631257,0.514063,0.00277777,0.485937,0.579109,0.307048,0.400492,0.264149,0.209116,0.236537,0.23769,2026-10-10 12:38:26,152,5.4,0.242857,0,0,64.5856,0.30732,0,0,0.6,0.4,0,1,3,0,0.138
Green_YC310_Pro_5B88_261010_124055.csv,3,5,19,9,106715,0.386861,5.72997e+06,0.545994,33.21,0.08,0.535,0.013333,0.058431,0.433121,-0.00469466,0.566879,0.546591,0.324263,0.417707,0.291451,0.207555,0.236537,0.194593,2026-10-10 12:40:55,149,5.4,0.242857,0,0,64.4068,0.305085,0,0.0625,0.625,0.3125,0,1,4,0,0.138667
Green_YC310_Pro_5B88_261010_124325.csv,3,6,21,9,78804.8,0.275219,6.12863e+06,0.625727,33.27,0.06,0.545,0.01,0.0572665,0.413044,-0.00116445,0.586956,0.588601,0.320569,0.414013,0.318752,0.204943,0.236537,0.193222,2026-10-10 12:43:25,150,5.4,0.242857,0,0,68.8525,0.360656,0,0.05,0.7,0.25,0,1,5,0,0.1325
Green_YC310_Pro_5B88_261010_124556.csv,3,7,18,16,72660.7,0.250643,5.03391e+06,0.406782,33.33,0.06,0.555,0.01,0.0558158,0.388032,-0.00145066,0.611968,0.597372,0.287516,0.38096,0.274759,0.217385,0.236537,0.190042,2026-10-10 12:45:56,151,5.4,0.242857,0,0,60.4703,0.255879,0,0,0.894737,0.105263,0,1,6,0,0.134737
Green_YC310_Pro_5B88_261010_124854.csv,3,8,18,14,73720.8,0.254883,4.92656e+06,0.385312,33.34,0.01,0.556667,0.00166667,0.0570003,0.408453,0.0011845,0.591547,0.607329,0.268258,0.361702,0.252768,0.222554,0.236537,0.200143,2026-10-10 12:48:54,178,6.3,0.307143,0,0,62.212,0.27765,0,0,0.789474,0.210526,0,1,7,30,0.126316
Green_YC310_Pro_5B88_261010_125123.csv,3,9,18,17,72666,0.250664,4.97052e+06,0.394105,33.34,0,0.556667,-3.33333e-07,0.055276,0.378724,-0.00172431,0.621276,0.618471,0.268859,0.362303,0.256959,0.221669,0.246918,0.20794,2026-10-10 12:51:23,149,6.3,0.307143,0,0,60.9481,0.261851,0,0,0.947368,0.0526316,0,1,8,30,0.131579
Green_YC310_Pro_5B88_261010_125355.csv,3,10,18,15,73471.4,0.253886,4.8955e+06,0.379101,33.33,-0.01,0.555,-0.001667,0.0540397,0.357409,-0.00123628,0.642591,0.638707,0.263352,0.356796,0.265331,0.219376,0.266545,0.214644,2026-10-10 12:53:55,152,6.3,0.307143,0,0,61.9266,0.274083,0,0,0.947368,0.0526316,0,1,9,30,0.124211
Green_YC310_Pro_5B88_261010_125625.csv,3,11,18,17,79999.5,0.279998,4.91075e+06,0.382151,33.31,-0.02,0.551667,-0.00333333,0.0534792,0.347745,-0.000560499,0.652255,0.631238,0.267238,0.360682,0.25305,0.220918,0.258659,0.227313,2026-10-10 12:56:25,150,6.3,0.307143,0,0,59.4714,0.243393,0,0,0.947368,0.0526316,0,1,10,30,0.125263
Green_YC310_Pro_5B88_261010_125854.csv,3,12,18,13,76205.6,0.264823,4.95311e+06,0.390623,33.3,-0.01,0.55,-0.001667,0.0563504,0.397248,0.00287116,0.602752,0.649801,0.284238,0.377682,0.240768,0.222986,0.276914,0.235846,2026-10-10 12:58:54,149,6.3,0.307143,0,0,60.6742,0.258427,0,0,0.842105,0.157895,0,1,11,30,0.126667
Green_YC310_Pro_5B88_261010_130124.csv,3,13,20,13,60384.8,0.201539,5.44005e+06,0.488009,33.27,-0.03,0.545,-0.005,0.0483063,0.258557,-0.0080441,0.741443,0.688451,0.288763,0.382207,0.24566,0.220377,0.315476,0.245067,2026-10-10 13:01:24,150,6.2,0.3,0,0,66.0066,0.325083,0,0.047619,0.952381,0,0,1,12,30,0.115238
Green_YC310_Pro_5B88_261010_130354.csv,3,14,18,15,77716.9,0.270868,5.29965e+06,0.459929,33.23,-0.04,0.538333,-0.00666667,0.0499549,0.286981,0.00164862,0.713019,0.721159,0.293287,0.386732,0.250552,0.217242,0.348344,0.264954,2026-10-10 13:03:54,150,6.2,0.3,0,0,63.1579,0.289474,0,0,1,0,0,1,13,30,0.115789
Green_YC310_Pro_5B88_261010_130625.csv,3,15,18,17,79812.2,0.279249,5.27201e+06,0.454403,33.2,-0.03,0.533333,-0.00499967,0.0501871,0.290984,0.000232161,0.709016,0.689275,0.281038,0.374482,0.249949,0.215793,0.316782,0.284868,2026-10-10 13:06:25,151,6.2,0.3,0,0,61.2245,0.265306,0,0,1,0,0,1,14,30,0.115789
Green_YC310_Pro_5B88_261010_130901.csv,3,16,18,14,81950.5,0.287802,5.29907e+06,0.459814,33.16,-0.04,0.526667,-0.00666633,0.0528883,0.337556,0.00270116,0.662444,0.669522,0.250489,0.35473,0.28847,0.205557,0.297552,0.301819,2026-10-10 13:09:01,156,6.2,0.3,0,0,59.9334,0.249167,0,0,0.947368,0.0526316,0,1,15,30,0.125263
Green_YC310_Pro_5B88_261010_131124.csv,3,17,17,16,84589.9,0.298359,5.50432e+06,0.500863,33.13,-0.03,0.521667,-0.00500033,0.0543578,0.362893,0.0014695,0.637107,0.657956,0.24807,0.35231,0.294643,0.202677,0.286626,0.291865,2026-10-10 13:11:24,143,6.2,0.3,0,0,58.9595,0.236994,0,0,0.888889,0.111111,0,1,16,30,0.122222
Green_YC310_Pro_5B88_261010_131355.csv,3,18,18,16,84275.1,0.297101,5.49677e+06,0.499354,33.11,-0.02,0.518333,-0.00333367,0.0526102,0.332762,-0.0017476,0.667238,0.642312,0.248664,0.352905,0.343232,0.191365,0.271665,0.281627,2026-10-10 13:13:55,151,6.2,0.3,0,0,60.5381,0.256726,0,0,0.947368,0.0526316,0,1,17,30,0.12
Green_YC310_Pro_5B88_261010_131630.csv,3,19,18,6,130092,0.480368,5.42115e+06,0.48423,33.08,-0.03,0.513333,-0.00499967,0.057157,0.411155,0.00454678,0.588845,0.62259,0.261653,0.365893,0.375621,0.182949,0.252725,0.265354,2026-10-10 13:16:30,155,6.8,0.342857,0,0,59.5369,0.244211,0,0,0.764706,0.176471,0.0588235,2,18,30,0.12
Green_YC310_Pro_5B88_261010_131854.csv,3,20,19,12,71162,0.244648,5.52035e+06,0.504069,33.06,-0.02,0.51,-0.003333,0.0577894,0.422058,0.000632359,0.577942,0.629023,0.266335,0.370575,0.311107,0.195522,0.259965,0.248208,2026-10-10 13:18:54,144,6.8,0.342857,0,0,64.117,0.301463,0,0.0555556,0.722222,0.222222,0,2,19,30,0.12625
Green_YC310_Pro_5B88_261010_132124.csv,3,21,18,17,78690.9,0.274764,5.50736e+06,0.501473,33.06,0,0.51,3.33067e-16,0.0532867,0.344425,-0.00450272,0.655575,0.635455,0.253331,0.357571,0.259355,0.20645,0.267108,0.230028,2026-10-10 13:21:24,150,6.8,0.342857,0,0,60.8108,0.260135,0,0,0.894737,0.105263,0,2,20,30,0.121053
Green_YC310_Pro_5B88_261010_132354.csv,3,22,17,12,77748.1,0.270992,5.48928e+06,0.497856,33.04,-0.02,0.506667,-0.00333333,0.0511178,0.307032,-0.00216885,0.692968,0.616725,0.240217,0.344457,0.258653,0.205547,0.249124,0.237239,2026-10-10 13:23:54,150,6.8,0.342857,0,0,56.4159,0.205199,0,0,1,0,0,2,21,30,0.117778
Green_YC310_Pro_5B88_261010_132633.csv,3,23,17,14,70635.5,0.242542,5.56734e+06,0.513468,33.03,-0.01,0.505,-0.001667,0.0610484,0.478248,0.00993061,0.521752,0.607495,0.227103,0.335228,0.250834,0.206673,0.24061,0.257957,2026-10-10 13:26:33,159,6.8,0.342857,0,0,58.4862,0.231077,0,0,0.705882,0.294118,0,2,23,30,0.135294
Green_YC310_Pro_5B88_261010_132858.csv,3,24,18,14,72826.7,0.251307,5.41233e+06,0.482465,33.04,0.01,0.506667,0.00166667,0.0568109,0.405188,-0.00423752,0.594812,0.607766,0.241206,0.335499,0.241516,0.209166,0.241451,0.260591,2026-10-10 13:28:58,145,6.8,0.342857,0,0,59.6026,0.245033,0,0,0.833333,0.166667,0,2,23,30,0.122105
Green_YC310_Pro_5B88_261010_133124.csv,3,25,18,17,65227.5,0.22091,5.7178e+06,0.54356,33.02,-0.02,0.503333,-0.00333367,0.0510707,0.306219,-0.0057402,0.693781,0.643052,0.242473,0.336765,0.236105,0.209257,0.277358,0.244202,2026-10-10 13:31:24,146,7.2,0.371429,0,0,59.8007,0.247509,0,0,0.947368,0.0526316,0,2,24,30,0.117895
Green_YC310_Pro_5B88_261010_133358.csv,3,26,17,9,72823.8,0.251295,5.64936e+06,0.529871,33.02,0,0.503333,3.33333e-07,0.0549087,0.372392,0.00383805,0.627608,0.662762,0.24694,0.341233,0.238511,0.208749,0.297615,0.237145,2026-10-10 13:33:58,154,7.2,0.371429,0,0,59.0962,0.238703,0,0.0588235,0.705882,0.235294,0,2,25,30,0.12375
Green_YC310_Pro_5B88_261010_133626.csv,3,27,19,11,70633.4,0.242534,5.65077e+06,0.530154,33.02,0,0.503333,3.33333e-07,0.051866,0.319932,-0.00304267,0.680068,0.666896,0.249434,0.343726,0.243328,0.207732,0.302231,0.262125,2026-10-10 13:36:26,148,7.2,0.371429,0,0,61.0278,0.262848,0,0,0.941176,0.0588235,0,2,26,30,0.121053
Green_YC310_Pro_5B88_261010_133857.csv,3,28,17,10,69038.4,0.236154,5.6608e+06,0.53216,33.02,0,0.503333,3.33333e-07,0.0503513,0.293816,-0.00151469,0.706184,0.673648,0.246751,0.341043,0.26322,0.203532,0.309407,0.286892,2026-10-10 13:38:57,151,7.2,0.371429,0,0,59.0962,0.238703,0,0,1,0,0,2,27,30,0.115556
Green_YC310_Pro_5B88_261010_134125.csv,3,29,20,2,137906,0.511626,5.61964e+06,0.523927,33,-0.02,0.5,-0.003333,0.0583523,0.431764,0.00800101,0.568236,0.6804,0.30135,0.347795,0.249151,0.205451,0.316652,0.307656,2026-10-10 13:41:25,148,7.2,0.371429,0,0,67.5676,0.344595,0,0.0714286,0.642857,0.142857,0.142857,2,28,30,0.104
Green_YC310_Pro_5B88_261010_134354.csv,3,30,22,10,78786.6,0.275146,5.77967e+06,0.555934,33.02,0.02,0.503333,0.00333333,0.054251,0.361051,-0.00410133,0.638949,0.644253,0.273065,0.31951,0.233709,0.209763,0.280818,0.31228,2026-10-10 13:43:54,149,7.2,0.371429,0,0,71.7391,0.396739,0,0.047619,0.809524,0.0952381,0.047619,2,29,30,0.122105
Green_YC310_Pro_5B88_261010_134624.csv,3,31,18,16,62341.3,0.209365,4.9346e+06,0.38692,33.03,0.01,0.505,0.001667,0.0566409,0.402257,0.00238989,0.597743,0.655825,0.298628,0.331082,0.218266,0.21355,0.292606,0.312152,2026-10-10 13:46:24,150,7.5,0.392857,0,0,59.4059,0.242574,0,0,0.833333,0.166667,0,2,30,30,0.125556
Green_YC310_Pro_5B88_261010_134854.csv,3,32,19,15,50346.5,0.161386,4.86753e+06,0.373506,33.02,-0.01,0.503333,-0.00166667,0.0492322,0.27452,-0.00740874,0.72548,0.63659,0.308859,0.341312,0.230476,0.210446,0.273621,0.312152,2026-10-10 13:48:54,150,7.5,0.392857,0,0,62.6374,0.282967,0,0,1,0,0,2,31,30,0.116
Green_YC310_Pro_5B88_261010_135135.csv,3,33,20,10,58234.1,0.192937,5.40777e+06,0.481554,32.99,-0.03,0.498333,-0.00499967,0.060388,0.466862,0.0111558,0.533138,0.586547,0.307082,0.339535,0.242687,0.206291,0.223979,0.284408,2026-10-10 13:51:35,161,7.5,0.392857,0,0,66.3717,0.329646,0,0.047619,0.571429,0.333333,0.047619,2,32,30,0.122353
Green_YC310_Pro_5B88_261010_135355.csv,3,34,17,1,90996.7,0.323987,4.73643e+06,0.347285,32.99,0,0.498333,3.33333e-07,0.0653483,0.552385,0.00496033,0.447615,0.609269,0.311627,0.344081,0.219138,0.211264,0.247052,0.284655,2026-10-10 13:53:55,140,7.5,0.392857,0,0,62.8853,0.286066,0,0.0769231,0.538462,0.153846,0.230769,2,33,30,0.11
Green_YC310_Pro_5B88_261010_135628.csv,3,35,24,13,32685.2,0.0907408,5.05544e+06,0.411088,32.84,-0.15,0.473333,-0.0249997,0.0452786,0.206356,-0.0200697,0.793644,0.653973,0.319169,0.351623,0.188021,0.209952,0.292966,0.257991,2026-10-10 13:56:28,153,7.7,0.407143,0,0,78.346,0.479325,0.0454545,0.318182,0.590909,0.0454545,0,2,34,30,0.114
Green_YC310_Pro_5B88_261010_135854.csv,3,36,20,17,54062.4,0.17625,4.84244e+06,0.368487,32.84,0,0.473333,3.33333e-07,0.0498314,0.284851,0.00455276,0.715149,0.720659,0.318197,0.35065,0.149336,0.218121,0.360717,0.298642,2026-10-10 13:58:54,146,7.7,0.407143,0,0,68.1818,0.352272,0,0.047619,0.904762,0.047619,0,2,35,30,0.11619
Green_YC310_Pro_5B88_261010_140124.csv,3,37,19,15,55254.4,0.181018,4.83731e+06,0.367462,32.9,0.06,0.483333,0.0100003,0.0534253,0.346815,0.00359389,0.653185,0.639239,0.317224,0.349678,0.172906,0.216297,0.279873,0.35775,2026-10-10 14:01:24,150,7.2,0.371429,0,0,64.4068,0.305085,0,0,0.894737,0.105263,0,2,36,30,0.12
Green_YC310_Pro_5B88_261010_140354.csv,3,38,19,4,67230.5,0.228922,4.79773e+06,0.359546,32.94,0.04,0.49,0.006667,0.0600277,0.46065,0.00660241,0.53935,0.559123,0.271362,0.303816,0.22167,0.208102,0.200025,0.396138,2026-10-10 14:03:54,150,7.1,0.364286,0,0,63.5452,0.294315,0,0,0.6875,0.25,0.0625,2,37,30,0.129231
Green_YC310_Pro_5B88_261010_140624.csv,3,39,17,15,73767.6,0.255071,5.3621e+06,0.47242,32.95,0.01,0.491667,0.00166667,0.0631897,0.515167,0.00316199,0.484833,0.530475,0.252384,0.284837,0.242956,0.204132,0.171553,0.342899,2026-10-10 14:06:24,150,7.2,0.371429,0,0,57.1749,0.214686,0,0,0.611111,0.388889,0,2,38,30,0.14
Green_YC310_Pro_5B88_261010_140855.csv,3,40,19,17,73032,0.252128,5.53369e+06,0.506739,32.98,0.03,0.496667,0.00499967,0.0595568,0.45253,-0.00363293,0.54747,0.519294,0.235066,0.273656,0.256378,0.202874,0.160346,0.28777,2026-10-10 14:08:55,151,7.1,0.364286,0,0,61.6883,0.271104,0,0,0.736842,0.263158,0,2,39,30,0.128
Green_YC310_Pro_5B88_261010_141126.csv,3,41,16,13,76546.6,0.266186,5.58337e+06,0.516674,32.96,-0.02,0.493333,-0.00333367,0.0606321,0.471071,0.00107534,0.528929,0.525578,0.240097,0.278687,0.243298,0.204586,0.166728,0.249019,2026-10-10 14:11:26,151,7,0.357143,0,0,54.6697,0.183371,0,0,0.764706,0.235294,0,2,40,30,0.135294
Green_YC310_Pro_5B88_261010_141354.csv,3,42,19,1,56819.8,0.187279,5.47557e+06,0.495115,32.95,-0.01,0.491667,-0.00166633,0.0620962,0.496313,0.00146407,0.503687,0.550443,0.265818,0.303552,0.21158,0.210758,0.191739,0.245315,2026-10-10 14:13:54,148,6.9,0.35,0,0,64.2616,0.30327,0,0,0.588235,0.352941,0.0588235,2,41,30,0.125714
Green_YC310_Pro_5B88_261010_141625.csv,3,43,20,12,49243.5,0.156974,5.19635e+06,0.439271,32.9,-0.05,0.483333,-0.00833367,0.0552303,0.377937,-0.00686585,0.622063,0.552917,0.324068,0.306026,0.215812,0.207237,0.194642,0.243254,2026-10-10 14:16:25,151,7,0.357143,0,0,64.8649,0.310811,0,0,0.789474,0.210526,0,2,42,30,0.124
Green_YC310_Pro_5B88_261010_141854.csv,3,44,20,4,79720.8,0.278883,5.32665e+06,0.46533,32.87,-0.03,0.478333,-0.00499967,0.0644063,0.536143,0.009176,0.463857,0.514381,0.362422,0.34438,0.210236,0.206838,0.156662,0.237787,2026-10-10 14:18:54,149,7.2,0.371429,0,0,64.9351,0.311689,0,0.125,0.375,0.1875,0.3125,2,43,30,0.084
Green_YC310_Pro_5B88_261010_142124.csv,3,45,23,1,41550.7,0.126203,4.95713e+06,0.391426,32.82,-0.05,0.47,-0.008333,0.0618606,0.492252,-0.00254568,0.507748,0.481873,0.361584,0.343542,0.209546,0.204356,0.124944,0.23579,2026-10-10 14:21:24,150,7.2,0.371429,0,0,77.1812,0.464765,0,0.0952381,0.47619,0.285714,0.142857,2,44,30,0.116
Green_YC310_Pro_5B88_261010_142355.csv,3,46,19,15,42921.6,0.131686,5.12157e+06,0.424313,32.79,-0.03,0.465,-0.005,0.0641165,0.531147,0.0022559,0.468853,0.474013,0.360746,0.342704,0.223551,0.199822,0.11796,0.221935,2026-10-10 14:23:55,151,7.1,0.364286,0,0,65.8199,0.322749,0,0,0.45,0.55,0,2,45,30,0.135789
Green_YC310_Pro_5B88_261010_142625.csv,3,47,18,2,90224.7,0.320899,5.00564e+06,0.401129,32.76,-0.03,0.46,-0.005,0.0657738,0.559721,0.00165733,0.440279,0.521751,0.345394,0.327352,0.230196,0.196842,0.166647,0.216616,2026-10-10 14:26:25,150,7.2,0.371429,0,0,60.5381,0.256726,0,0,0.5,0.357143,0.142857,2,46,30,0.124
Green_YC310_Pro_5B88_261010_142855.csv,3,48,22,4,46534.5,0.146138,4.5721e+06,0.31442,32.78,0.02,0.463333,0.00333333,0.0535544,0.349041,-0.0122194,0.650959,0.549831,0.35549,0.337448,0.196866,0.204931,0.195444,0.207785,2026-10-10 14:28:55,150,7.3,0.378571,0,0,73.4967,0.418709,0,0.0952381,0.714286,0.190476,0,2,47,30,0.12
Green_YC310_Pro_5B88_261010_143125.csv,3,49,20,10,53572.4,0.17429,5.33659e+06,0.467319,32.76,-0.02,0.46,-0.003333,0.0608914,0.475542,0.00733704,0.524458,0.558255,0.353316,0.335274,0.162686,0.211098,0.204618,0.229573,2026-10-10 14:31:25,150,7.4,0.385714,0,0,66.2252,0.327815,0,0.047619,0.47619,0.47619,0,2,48,30,0.141053
Green_YC310_Pro_5B88_261010_143356.csv,3,50,20,7,49006.8,0.156027,5.18922e+06,0.437844,32.74,-0.02,0.456667,-0.00333333,0.0623478,0.500651,0.00145637,0.499349,0.506759,0.322638,0.304596,0.163329,0.209911,0.153903,0.250584,2026-10-10 14:33:56,151,7.3,0.378571,0,0,67.1141,0.338926,0,0,0.705882,0.235294,0.0588235,2,49,30,0.133333
Green_YC310_Pro_5B88_261010_143627.csv,3,51,18,8,49574.5,0.158298,5.3097e+06,0.461939,32.74,0,0.456667,-3.33333e-07,0.0625147,0.503529,0.000166877,0.496471,0.496744,0.302539,0.294581,0.15967,0.210684,0.144574,0.262375,2026-10-10 14:36:27,151,7.3,0.378571,0,0,62.7907,0.284884,0,0,0.684211,0.263158,0.0526316,2,50,30,0.129412
Green_YC310_Pro_5B88_261010_143855.csv,3,52,19,11,51171.1,0.164684,5.25065e+06,0.45013,32.71,-0.03,0.451667,-0.00500033,0.0626341,0.505587,0.000119362,0.494413,0.49075,0.295531,0.288586,0.166772,0.207608,0.139364,0.254713,2026-10-10 14:38:55,148,7.3,0.378571,0,0,64.117,0.301463,0,0,0.578947,0.421053,0,2,51,30,0.133684
Green_YC310_Pro_5B88_261010_144125.csv,3,53,19,5,54333.6,0.177335,5.34348e+06,0.468696,32.68,-0.03,0.446667,-0.00500033,0.0633908,0.518635,0.000756706,0.481365,0.550028,0.33432,0.327375,0.153056,0.208928,0.199513,0.248031,2026-10-10 14:41:25,150,7.3,0.378571,0,0,63.5452,0.294315,0,0.0588235,0.470588,0.352941,0.117647,2,52,30,0.141429
Green_YC310_Pro_5B88_261010_144356.csv,3,54,22,11,38765.2,0.115061,5.29281e+06,0.458562,32.68,0,0.446667,-3.33333e-07,0.0594584,0.450835,-0.00393237,0.549165,0.609307,0.365592,0.358647,0.150867,0.20939,0.259557,0.249052,2026-10-10 14:43:56,151,7.4,0.385714,0,0,75.775,0.447188,0,0.1,0.55,0.25,0.1,2,53,30,0.11625
Green_YC310_Pro_5B88_261010_144624.csv,3,55,20,5,59002.7,0.196011,5.79872e+06,0.559743,32.78,0.1,0.463333,0.0166663,0.0485495,0.262751,-0.0109089,0.737249,0.634877,0.355273,0.348329,0.154099,0.213962,0.285201,0.248719,2026-10-10 14:46:24,148,7.2,0.371429,0,0,67.2646,0.340808,0,0.277778,0.555556,0.166667,0,2,54,30,0.0984615
Green_YC310_Pro_5B88_261010_144854.csv,3,56,16,5,37924.9,0.1117,5.10976e+06,0.421952,32.78,0,0.463333,3.33333e-07,0.056084,0.392656,0.00753454,0.607344,0.660447,0.311283,0.304339,0.151225,0.214569,0.310835,0.286029,2026-10-10 14:48:54,150,7.5,0.392857,0,0,61.0687,0.263359,0,0,0.875,0.0625,0.0625,2,55,30,0.125333
Green_YC310_Pro_5B88_261010_145124.csv,3,57,20,7,36609.8,0.106439,5.45458e+06,0.490917,32.73,-0.05,0.455,-0.008333,0.0574587,0.416356,0.00137466,0.583644,0.644618,0.289992,0.28851,0.134437,0.215487,0.295364,0.323506,2026-10-10 14:51:24,150,7.8,0.414286,0,0,65.2174,0.315217,0,0.0588235,0.588235,0.352941,0,2,56,30,0.150909
Green_YC310_Pro_5B88_261010_145400.csv,3,58,18,17,46412.1,0.145648,5.75225e+06,0.55045,32.66,-0.07,0.443333,-0.0116667,0.0539963,0.35666,-0.00346243,0.64334,0.628789,0.315458,0.313975,0.129211,0.212912,0.280269,0.343566,2026-10-10 14:54:00,156,7.7,0.407143,0,0,61.294,0.266175,0,0,0.947368,0.0526316,0,2,57,30,0.137895
Green_YC310_Pro_5B88_261010_145624.csv,3,59,19,18,39776.7,0.119107,5.60589e+06,0.521179,32.56,-0.1,0.426667,-0.0166663,0.0522218,0.326066,-0.00177448,0.673934,0.636957,0.36498,0.322143,0.162367,0.200656,0.291584,0.359565,2026-10-10 14:56:24,144,7.4,0.385714,0,0,63.9731,0.299664,0,0,0.95,0.05,0,2,58,30,0.124211
Green_YC310_Pro_5B88_261010_145855.csv,3,60,22,2,77223.9,0.268896,5.50636e+06,0.501273,32.57,0.01,0.428333,0.00166633,0.0543576,0.362889,0.00213579,0.637111,0.645126,0.377942,0.330312,0.222346,0.188516,0.300711,0.378563,2026-10-10 14:58:55,151,7.3,0.378571,0,0,77.1028,0.463785,0,0.466667,0.2,0.133333,0.2,2,59,30,0.12
Green_YC310_Pro_5B88_261010_150124.csv,3,61,23,2,79758.9,0.279036,5.47692e+06,0.495384,32.58,0.01,0.43,0.001667,0.0550987,0.375668,0.000741149,0.624332,0.603153,0.390905,0.343274,0.293821,0.173948,0.259516,0.395152,2026-10-10 15:01:24,149,7.1,0.364286,0,0,76.5816,0.45727,0,0.2,0.55,0.1,0.15,2,60,30,0.105
Green_YC310_Pro_5B88_261010_150356.csv,3,62,19,1,93382.4,0.33353,5.67152e+06,0.534303,32.55,-0.03,0.425,-0.005,0.0595251,0.451984,0.00442636,0.548016,0.628349,0.407396,0.359765,0.280798,0.175122,0.28557,0.394816,2026-10-10 15:03:56,152,6.9,0.35,0,0,65.442,0.318025,0,0.25,0.416667,0.166667,0.166667,2,61,30,0.105714
Green_YC310_Pro_5B88_261010_150629.csv,3,63,24,5,68724.7,0.234899,5.24507e+06,0.449015,32.48,-0.07,0.413333,-0.0116667,0.048745,0.266121,-0.0107801,0.733879,0.640948,0.423887,0.372363,0.267776,0.174193,0.299338,0.39448,2026-10-10 15:06:29,153,6.8,0.342857,0,0,82.3799,0.529749,0.0588235,0.235294,0.588235,0.0588235,0.0588235,2,62,30,0.1225
Green_YC310_Pro_5B88_261010_150856.csv,3,64,21,2,32068.8,0.0882751,5.53935e+06,0.50787,32.24,-0.24,0.373333,-0.0399997,0.0618371,0.491846,0.0130921,0.508154,0.637312,0.494461,0.442938,0.238254,0.167815,0.298167,0.375449,2026-10-10 15:08:56,147,6.7,0.335714,0,0,70.9459,0.386824,0,0.0625,0.5625,0.3125,0.0625,2,63,30,0.126667
Green_YC310_Pro_5B88_261010_151125.csv,3,65,24,3,71241.1,0.244965,5.50665e+06,0.501329,32.26,0.02,0.376667,0.00333367,0.0495884,0.280661,-0.0122487,0.719339,0.594303,0.492395,0.440871,0.215839,0.173599,0.257201,0.417451,2026-10-10 15:11:25,149,6.4,0.314286,0,0,82.3799,0.529749,0,0.2,0.6,0.2,0,2,64,30,0.103636
Green_YC310_Pro_5B88_261010_151355.csv,3,66,22,6,45978.5,0.143914,5.4134e+06,0.482681,32.39,0.13,0.398333,0.0216663,0.0686598,0.60948,0.0190714,0.39052,0.532087,0.448461,0.396937,0.193424,0.185164,0.195997,0.398245,2026-10-10 15:13:55,150,6,0.285714,0,0,73.4149,0.417686,0,0,0.47619,0.333333,0.190476,2,65,30,0.143077
Green_YC310_Pro_5B88_261010_151628.csv,3,67,21,11,45470.8,0.141883,5.56777e+06,0.513555,32.56,0.17,0.426667,0.0283337,0.0548878,0.372031,-0.013772,0.627969,0.554766,0.430711,0.379187,0.176342,0.197705,0.218542,0.424813,2026-10-10 15:16:28,153,5.6,0.257143,0,0,71.8358,0.397948,0,0.130435,0.73913,0.130435,0,2,66,30,0.132632
Green_YC310_Pro_5B88_261010_151855.csv,3,68,23,13,50057.8,0.160231,5.53509e+06,0.507017,32.69,0.13,0.448333,0.0216663,0.058099,0.427396,0.00321116,0.572604,0.601352,0.423748,0.372225,0.159259,0.208143,0.264227,0.374151,2026-10-10 15:18:55,147,5.7,0.264286,0,0,75.6579,0.445724,0,0,0.695652,0.26087,0.0434783,2,67,30,0.124
Green_YC310_Pro_5B88_261010_152127.csv,3,69,22,2,54159.1,0.176636,5.10299e+06,0.420598,32.72,0.03,0.453333,0.00500033,0.0549179,0.372549,-0.00318113,0.627451,0.603482,0.417889,0.366365,0.150868,0.211492,0.265379,0.39663,2026-10-10 15:21:27,152,6.2,0.3,0,0,72.4479,0.405599,0,0.153846,0.615385,0.153846,0.0769231,2,68,30,0.142222
Green_YC310_Pro_5B88_261010_152356.csv,3,70,22,9,45223.1,0.140892,5.09858e+06,0.419716,32.71,-0.01,0.451667,-0.00166633,0.0545171,0.36564,-0.000400777,0.63436,0.582318,0.407879,0.356355,0.142476,0.212738,0.243409,0.392707,2026-10-10 15:23:56,149,6.8,0.342857,0,0,73.1707,0.414634,0,0.176471,0.588235,0.235294,0,2,69,30,0.125714
Green_YC310_Pro_5B88_261010_152624.csv,3,71,22,8,37078.9,0.108316,5.23537e+06,0.447074,32.69,-0.02,0.448333,-0.00333367,0.0576195,0.419129,0.00310239,0.580871,0.561153,0.403404,0.35188,0.144817,0.211193,0.221652,0.408489,2026-10-10 15:26:24,148,6.9,0.35,0,0,71.9738,0.399672,0,0.1,0.55,0.3,0.05,2,70,30,0.136923
Green_YC310_Pro_5B88_261010_152858.csv,3,72,21,9,55914.4,0.183658,5.23065e+06,0.44613,32.69,0,0.448333,3.33333e-07,0.0630091,0.512054,0.00538963,0.487946,0.565143,0.364483,0.31296,0.144394,0.211282,0.225117,0.391879,2026-10-10 15:28:58,154,7,0.357143,0,0,71.6724,0.395905,0,0,0.533333,0.4,0.0666667,2,71,30,0.158182
Green_YC310_Pro_5B88_261010_153125.csv,3,73,19,9,44277.8,0.137111,5.40855e+06,0.481711,32.68,-0.01,0.446667,-0.00166633,0.0571913,0.411747,-0.00581775,0.588253,0.569133,0.346171,0.294647,0.141208,0.21143,0.228701,0.376686,2026-10-10 15:31:25,147,6.9,0.35,0,0,63.8298,0.297872,0,0.05,0.55,0.35,0.05,2,72,30,0.125714
Green_YC310_Pro_5B88_261010_153358.csv,3,74,20,16,35713.8,0.102855,5.13954e+06,0.427908,32.66,-0.02,0.443333,-0.00333367,0.0547003,0.368799,-0.00249098,0.631201,0.628916,0.327858,0.276335,0.111726,0.216604,0.288243,0.36562,2026-10-10 15:33:58,153,6.9,0.35,0,0,65.7895,0.322369,0,0,0.9,0.1,0,2,73,30,0.121
Green_YC310_Pro_5B88_261010_153626.csv,3,75,21,14,33802.9,0.0952116,5.39148e+06,0.478297,32.64,-0.02,0.44,-0.003333,0.0526069,0.332705,-0.00209341,0.667295,0.619278,0.335203,0.28368,0.121884,0.213408,0.27851,0.38473,2026-10-10 15:36:26,148,6.9,0.35,0,0,68.6275,0.357844,0,0.0952381,0.857143,0.047619,0,2,74,30,0.121905
Green_YC310_Pro_5B88_261010_153854.csv,3,76,19,13,43361.2,0.133445,5.27987e+06,0.455974,32.57,-0.07,0.428333,-0.0116667,0.0558125,0.387974,0.00320559,0.612026,0.60964,0.339182,0.287658,0.132043,0.207585,0.269204,0.405507,2026-10-10 15:38:54,148,6.9,0.35,0,0,65.5926,0.319908,0,0,0.9,0.1,0,2,75,30,0.126
Green_YC310_Pro_5B88_261010_154128.csv,3,77,20,12,51867.7,0.167471,5.3694e+06,0.47388,32.53,-0.04,0.421667,-0.00666633,0.0592949,0.448016,0.0034824,0.551984,0.575138,0.339794,0.288271,0.16002,0.199575,0.235232,0.418764,2026-10-10 15:41:28,154,6.8,0.342857,0,0,65.6455,0.320569,0,0.0526316,0.631579,0.263158,0.0526316,2,76,30,0.125
Green_YC310_Pro_5B88_261010_154355.csv,3,78,21,4,54785.7,0.179143,5.29072e+06,0.458144,32.5,-0.03,0.416667,-0.00500033,0.0586102,0.43621,-0.000684715,0.56379,0.551216,0.366149,0.314626,0.167935,0.196327,0.211954,0.402294,2026-10-10 15:43:55,147,6.7,0.335714,0,0,70.3125,0.378906,0,0.157895,0.473684,0.263158,0.105263,2,77,30,0.153333
Green_YC310_Pro_5B88_261010_154628.csv,3,79,21,4,51160.2,0.164641,5.31498e+06,0.462996,32.49,-0.01,0.415,-0.001667,0.0608426,0.474699,0.00223236,0.525301,0.567227,0.412662,0.330637,0.174256,0.194467,0.228588,0.381555,2026-10-10 15:46:28,153,6.6,0.328571,0,0,71.9178,0.398973,0,0.0625,0.5625,0.1875,0.1875,2,78,30,0.118
Green_YC310_Pro_5B88_261010_154857.csv,3,80,25,5,56539.3,0.186157,5.29863e+06,0.459726,32.48,-0.01,0.413333,-0.00166667,0.053348,0.345482,-0.00749463,0.654518,0.583741,0.460107,0.34715,0.178985,0.192943,0.245707,0.37081,2026-10-10 15:48:57,149,6.5,0.321429,0,0,81.6993,0.521241,0,0.352941,0.411765,0.176471,0.0588235,2,79,30,0.101818
Green_YC310_Pro_5B88_261010_155125.csv,3,81,18,2,81232.8,0.284931,5.24749e+06,0.449499,32.5,0.02,0.416667,0.00333367,0.061052,0.478311,0.00770401,0.521689,0.571403,0.422448,0.334812,0.204409,0.188625,0.233779,0.36781,2026-10-10 15:51:25,148,6.3,0.307143,0,0,60.6061,0.257576,0,0.0666667,0.333333,0.6,0,2,80,30,0.14
Green_YC310_Pro_5B88_261010_155354.csv,3,82,19,4,64213.2,0.216853,5.33651e+06,0.467302,32.49,-0.01,0.415,-0.001667,0.0629893,0.511713,0.00193734,0.488287,0.566255,0.384789,0.329665,0.215729,0.185709,0.22905,0.367745,2026-10-10 15:53:54,149,6.3,0.307143,0,0,64.6259,0.307824,0,0,0.6,0.266667,0.133333,2,81,30,0.141818
Green_YC310_Pro_5B88_261010_155624.csv,3,83,18,5,71044.3,0.244177,5.38007e+06,0.476014,32.56,0.07,0.426667,0.0116667,0.0570062,0.408555,-0.00598311,0.591445,0.561108,0.312434,0.324517,0.202641,0.192151,0.223848,0.361912,2026-10-10 15:56:24,150,6.2,0.3,0,0,59.867,0.248337,0,0,0.75,0.1875,0.0625,2,82,30,0.12125
Green_YC310_Pro_5B88_261010_155854.csv,3,84,19,12,47004.6,0.148018,5.67442e+06,0.534885,32.64,0.08,0.44,0.013333,0.0545421,0.366071,-0.00246406,0.633929,0.569427,0.274492,0.286575,0.187525,0.199547,0.231637,0.375213,2026-10-10 15:58:54,150,5.7,0.264286,0,0,64.3341,0.304176,0,0,0.8,0.2,0,2,83,30,0.124444
Green_YC310_Pro_5B88_261010_160123.csv,3,85,17,15,53927.2,0.175709,5.65902e+06,0.531804,32.7,0.06,0.45,0.01,0.0615419,0.486757,0.00699978,0.513243,0.57819,0.273795,0.285878,0.17038,0.206321,0.239572,0.387932,2026-10-10 16:01:23,149,5.7,0.264286,0,0,59.3023,0.241279,0,0,0.722222,0.277778,0,2,84,30,0.137778
Green_YC310_Pro_5B88_261010_160354.csv,3,86,18,15,58185.3,0.192741,5.68825e+06,0.537651,32.8,0.1,0.466667,0.0166667,0.0580581,0.426691,-0.00348385,0.573309,0.5874,0.275929,0.288012,0.171924,0.211249,0.24745,0.393938,2026-10-10 16:03:54,151,5.8,0.271429,0,0,60.5381,0.256726,0,0.0526316,0.736842,0.210526,0,2,85,30,0.134444
Green_YC310_Pro_5B88_261010_160624.csv,3,87,19,10,48162.6,0.15265,5.60266e+06,0.520532,32.85,0.05,0.475,0.008333,0.0529398,0.338444,-0.00511833,0.661556,0.576351,0.295991,0.308074,0.175375,0.213148,0.234927,0.384893,2026-10-10 16:06:24,150,5.9,0.278571,0,0,64.8464,0.31058,0,0,0.941176,0.0588235,0,2,86,30,0.1275
Green_YC310_Pro_5B88_261010_160854.csv,3,88,19,11,60865.1,0.20346,5.29836e+06,0.459671,32.86,0.01,0.476667,0.00166667,0.0579449,0.424739,0.00500506,0.575261,0.565303,0.32854,0.340623,0.176619,0.213411,0.22252,0.376952,2026-10-10 16:08:54,150,6.3,0.307143,0,0,64.117,0.301463,0,0,0.666667,0.333333,0,2,87,30,0.14
Green_YC310_Pro_5B88_261010_161123.csv,3,89,22,10,46726.1,0.146904,5.20771e+06,0.441542,32.87,0.01,0.478333,0.00166633,0.0641051,0.530951,0.00616024,0.469049,0.535843,0.339256,0.351339,0.174225,0.214442,0.191803,0.375411,2026-10-10 16:11:23,149,6.5,0.321429,0,0,72.0524,0.400655,0,0,0.526316,0.421053,0.0526316,2,88,30,0.14
Green_YC310_Pro_5B88_261010_161356.csv,3,90,20,14,54019.1,0.176077,5.53103e+06,0.506206,32.93,0.06,0.488333,0.0100003,0.0600176,0.460475,-0.00408755,0.539525,0.506384,0.31565,0.327733,0.172312,0.217999,0.160875,0.362435,2026-10-10 16:13:56,153,6.3,0.307143,0,0,65.2174,0.315217,0,0.0526316,0.631579,0.315789,0,2,89,30,0.125333
Green_YC310_Pro_5B88_261010_161625.csv,3,91,17,9,59429.9,0.19772,5.68563e+06,0.537127,32.96,0.03,0.493333,0.00500033,0.0597743,0.456281,-0.000243283,0.543719,0.518581,0.247672,0.259755,0.188239,0.216212,0.171598,0.349663,2026-10-10 16:16:25,149,5.9,0.278571,0,0,58.4862,0.231077,0,0,0.666667,0.333333,0,2,90,30,0.138333
Green_YC310_Pro_5B88_261010_161854.csv,3,92,17,12,58671,0.194684,5.61529e+06,0.523059,33.02,0.06,0.503333,0.0100003,0.0619829,0.49436,0.00220858,0.50564,0.53069,0.237944,0.250027,0.202941,0.21626,0.182048,0.33689,2026-10-10 16:18:54,149,5.7,0.264286,0,0,55.7377,0.196721,0,0,0.611111,0.388889,0,2,91,30,0.141111
Green_YC310_Pro_5B88_261010_162126.csv,3,93,19,8,64631.7,0.218527,5.62984e+06,0.525969,33.08,0.06,0.513333,0.0100003,0.0583799,0.43224,-0.00360297,0.56776,0.534028,0.238984,0.251067,0.216419,0.216567,0.183565,0.335486,2026-10-10 16:21:26,152,5.6,0.257143,0,0,61.5551,0.269439,0,0.0526316,0.631579,0.315789,0,2,92,30,0.127692
Green_YC310_Pro_5B88_261010_162355.csv,3,94,17,11,69538.2,0.238153,5.61832e+06,0.523664,33.15,0.07,0.525,0.011667,0.0626028,0.505048,0.00422287,0.494952,0.543867,0.251152,0.260907,0.193588,0.225067,0.19138,0.32213,2026-10-10 16:23:55,149,5.4,0.242857,0,0,57.6271,0.220339,0,0,0.555556,0.444444,0,2,93,30,0.14
Green_YC310_Pro_5B88_261010_162624.csv,3,95,18,12,64245.4,0.216982,5.58992e+06,0.517983,33.22,0.07,0.536667,0.0116667,0.0590324,0.44349,-0.0035704,0.55651,0.56889,0.263678,0.273433,0.170759,0.233566,0.214199,0.3228,2026-10-10 16:26:24,149,5.3,0.235714,0,0,59.2105,0.240131,0,0,0.789474,0.210526,0,2,94,30,0.14
Green_YC310_Pro_5B88_261010_162855.csv,3,96,20,14,35841.1,0.103364,5.38102e+06,0.476204,33.25,0.03,0.541667,0.00499967,0.054026,0.357172,-0.0050064,0.642828,0.585857,0.339847,0.2904,0.151143,0.239285,0.229047,0.321903,2026-10-10 16:28:55,151,4.9,0.207143,0,0,66.4452,0.330565,0,0.0555556,0.888889,0.0555556,0,2,95,30,0.131111
Green_YC310_Pro_5B88_261010_163128.csv,3,97,23,11,39580.7,0.118323,5.22163e+06,0.444327,33.19,-0.06,0.531667,-0.0100003,0.0596505,0.454146,0.0056245,0.545854,0.585315,0.363914,0.314467,0.131527,0.240274,0.226998,0.332601,2026-10-10 16:31:28,153,5.1,0.221429,0,0,75.9076,0.448845,0,0.047619,0.571429,0.333333,0.047619,2,96,30,0.13625
Green_YC310_Pro_5B88_261010_163353.csv,3,98,20,4,49922.7,0.159691,5.23628e+06,0.447257,33.16,-0.03,0.526667,-0.00500033,0.05612,0.393275,-0.00353055,0.606725,0.557812,0.38798,0.338533,0.140433,0.236817,0.198347,0.344365,2026-10-10 16:33:53,145,5.2,0.228571,0,0,70.0935,0.376169,0,0.105263,0.631579,0.157895,0.105263,2,97,30,0.123333
Green_YC310_Pro_5B88_261010_163626.csv,3,99,20,8,42520.4,0.130082,5.1086e+06,0.421721,33.13,-0.03,0.521667,-0.00500033,0.0639372,0.528054,0.00781716,0.471946,0.53932,0.346726,0.320041,0.150188,0.23318,0.179024,0.341968,2026-10-10 16:36:26,153,5.1,0.221429,0,0,67.1141,0.338926,0,0,0.529412,0.470588,0,2,98,30,0.13875
Green_YC310_Pro_5B88_261010_163853.csv,3,100,20,8,55224.3,0.180897,5.27018e+06,0.454036,33.13,0,0.521667,-3.33333e-07,0.0561235,0.393337,-0.00781366,0.606663,0.544285,0.329395,0.30271,0.160355,0.231033,0.183256,0.356892,2026-10-10 16:38:53,147,4.9,0.207143,0,0,66.0066,0.325083,0.0625,0.0625,0.625,0.25,0,2,99,30,0.13625
Green_YC310_Pro_5B88_261010_164127.csv,3,101,20,8,47386.3,0.149545,5.03491e+06,0.406983,33.13,0,0.521667,-3.33333e-07,0.0627817,0.508133,0.00665823,0.491867,0.547036,0.298582,0.271897,0.169661,0.229068,0.185362,0.328633,2026-10-10 16:41:27,154,4.4,0.171429,0,0,65.9341,0.324176,0,0.117647,0.411765,0.352941,0.117647,2,100,30,0.141538
Green_YC310_Pro_5B88_261010_164359.csv,3,102,17,16,59664.3,0.198657,5.64086e+06,0.528172,33.16,0.03,0.526667,0.00499967,0.0606915,0.472095,-0.00209019,0.527905,0.542578,0.306399,0.279714,0.181491,0.228147,0.180154,0.324431,2026-10-10 16:43:59,152,4.3,0.164286,0,0,59.719,0.246488,0,0,0.777778,0.222222,0,2,101,30,0.142222
Green_YC310_Pro_5B88_261010_164624.csv,3,103,20,10,54776.1,0.179104,5.33022e+06,0.466045,33.25,0.09,0.541667,0.0149997,0.0568992,0.406711,-0.00379227,0.593289,0.532613,0.322707,0.296023,0.185712,0.231985,0.168989,0.302195,2026-10-10 16:46:24,145,4.3,0.164286,0,0,69.9301,0.374126,0,0,0.789474,0.210526,0,2,102,30,0.124706
Green_YC310_Pro_5B88_261010_164856.csv,3,104,19,9,56495.7,0.185983,5.59265e+06,0.518529,33.27,0.02,0.545,0.003333,0.0641483,0.531695,0.00724912,0.468305,0.522648,0.332769,0.306084,0.183334,0.233538,0.157847,0.309388,2026-10-10 16:48:56,152,4.3,0.164286,0,0,63.6872,0.29609,0,0,0.444444,0.555556,0,2,103,30,0.156667
Green_YC310_Pro_5B88_261010_165124.csv,3,105,20,13,55566.5,0.182266,5.43531e+06,0.487061,33.35,0.08,0.558333,0.0133333,0.0650935,0.547992,0.000945248,0.452008,0.50681,0.328091,0.301406,0.186602,0.237052,0.140491,0.290708,2026-10-10 16:51:24,148,4.1,0.15,0,0,65.9341,0.324176,0,0,0.578947,0.263158,0.157895,2,104,30,0.127143
Green_YC310_Pro_5B88_261010_165355.csv,3,106,20,8,57667.4,0.19067,5.48072e+06,0.496143,33.42,0.07,0.57,0.011667,0.0630788,0.513255,-0.00201469,0.486745,0.490971,0.335653,0.308968,0.191555,0.239684,0.122896,0.270191,2026-10-10 16:53:55,151,4,0.142857,0,0,68.8073,0.360091,0,0.0526316,0.578947,0.368421,0,2,105,30,0.132941
Green_YC310_Pro_5B88_261010_165625.csv,3,107,20,9,60211.3,0.200845,5.53641e+06,0.507281,33.39,-0.03,0.565,-0.005,0.0603288,0.465841,-0.00275002,0.534159,0.526358,0.366687,0.340002,0.183604,0.239787,0.156916,0.254819,2026-10-10 16:56:25,150,4.1,0.15,0,0,65.5022,0.318778,0,0,0.571429,0.428571,0,2,106,30,0.138095
Green_YC310_Pro_5B88_261010_165854.csv,3,108,23,10,49603.1,0.158412,5.4185e+06,0.483699,33.4,0.01,0.566667,0.00166667,0.0572053,0.411987,-0.00312354,0.588013,0.574293,0.393642,0.366957,0.180849,0.240894,0.203589,0.269475,2026-10-10 16:58:54,149,4.2,0.157143,0,0,77.5281,0.469101,0,0.181818,0.454545,0.318182,0.0454545,2,107,30,0.134118
Green_YC310_Pro_5B88_261010_170124.csv,3,109,21,16,61432.2,0.205729,5.50195e+06,0.50039,33.36,-0.04,0.56,-0.006667,0.056469,0.399293,-0.000736304,0.600707,0.582605,0.393047,0.366363,0.192154,0.236405,0.211028,0.300174,2026-10-10 17:01:24,150,4.2,0.157143,0,0,69.4598,0.368248,0,0.0526316,0.842105,0.105263,0,2,108,30,0.14
Green_YC310_Pro_5B88_261010_170355.csv,3,110,20,14,59686.5,0.198746,5.32101e+06,0.464202,33.47,0.11,0.578333,0.0183333,0.0580868,0.427186,0.00161781,0.572814,0.597921,0.379698,0.353013,0.218836,0.236551,0.224915,0.325525,2026-10-10 17:03:55,151,4.2,0.157143,0,0,65.3595,0.316994,0,0.05,0.7,0.25,0,2,109,30,0.129412
Green_YC310_Pro_5B88_261010_170626.csv,3,111,22,4,78030.3,0.272121,5.22459e+06,0.444918,33.39,-0.08,0.565,-0.013333,0.0538799,0.354653,-0.00420692,0.645347,0.601737,0.387282,0.35683,0.231716,0.229627,0.227954,0.344348,2026-10-10 17:06:26,151,4.3,0.164286,0,0,74.3243,0.429054,0.0666667,0.133333,0.666667,0.133333,0,2,110,30,0.126667
Green_YC310_Pro_5B88_261010_170855.csv,3,112,21,7,55968.7,0.183875,5.14725e+06,0.429449,33.37,-0.02,0.561667,-0.00333333,0.0575519,0.417964,0.00367203,0.582036,0.58705,0.392492,0.36204,0.211526,0.23284,0.212702,0.34304,2026-10-10 17:08:55,149,4.5,0.178571,0,0,69.9223,0.374029,0,0.0909091,0.636364,0.272727,0,2,111,30,0.127059
Green_YC310_Pro_5B88_261010_171125.csv,3,113,22,8,61557.9,0.206232,5.44429e+06,0.488859,33.29,-0.08,0.548333,-0.0133337,0.0606423,0.471246,0.00309038,0.528754,0.603693,0.360503,0.330051,0.185691,0.234091,0.229327,0.343254,2026-10-10 17:11:25,150,4.4,0.171429,0,0,71.4286,0.392858,0,0.0526316,0.578947,0.263158,0.105263,2,112,30,0.123333
Green_YC310_Pro_5B88_261010_171355.csv,3,114,16,10,55578.1,0.182312,5.52225e+06,0.504451,33.4,0.11,0.566667,0.0183337,0.0603298,0.465859,-0.000312467,0.534141,0.620335,0.328146,0.297693,0.166966,0.243826,0.245292,0.32428,2026-10-10 17:13:55,150,4.3,0.164286,0,0,62.5815,0.282269,0,0,0.733333,0.266667,0,2,113,30,0.134286
Green_YC310_Pro_5B88_261010_171624.csv,3,115,20,15,38088.8,0.112355,5.53469e+06,0.506937,33.32,-0.08,0.553333,-0.0133337,0.0500189,0.288084,-0.0103109,0.711916,0.666029,0.313452,0.283,0.125795,0.248316,0.29087,0.313976,2026-10-10 17:16:24,149,4.5,0.178571,0,0,68.4151,0.355189,0,0,1,0,0,2,114,30,0.119048
Green_YC310_Pro_5B88_261010_171856.csv,3,116,18,9,30679.4,0.0827176,5.39056e+06,0.478111,33.24,-0.08,0.54,-0.013333,0.0526915,0.334164,0.00267264,0.665836,0.689356,0.3029,0.272447,0.0925967,0.251122,0.314574,0.33846,2026-10-10 17:18:56,152,4.8,0.2,0,0,62.1404,0.276755,0,0.0625,0.875,0.0625,0,2,115,30,0.122857
Green_YC310_Pro_5B88_261010_172126.csv,3,117,17,2,71355.1,0.245421,5.55161e+06,0.510321,33.18,-0.06,0.53,-0.01,0.0667741,0.576968,0.0140826,0.423032,0.658935,0.379142,0.34869,0.0796686,0.250699,0.284845,0.387137,2026-10-10 17:21:26,150,4.7,0.192857,0,0,68.7332,0.359165,0,0,0.466667,0.333333,0.2,2,116,30,0.151429
Green_YC310_Pro_5B88_261010_172355.csv,3,118,22,10,28392.6,0.0735705,5.16137e+06,0.432275,33.12,-0.06,0.52,-0.01,0.0500351,0.288364,-0.016739,0.711636,0.597134,0.357892,0.32744,0.12775,0.237393,0.224011,0.434403,2026-10-10 17:23:55,149,4.6,0.185714,0,0,71.506,0.393825,0,0.26087,0.608696,0.130435,0,2,117,30,0.117647
Green_YC310_Pro_5B88_261010_172624.csv,3,119,21,10,67502.7,0.230011,5.54338e+06,0.508676,33.03,-0.09,0.505,-0.015,0.063445,0.519569,0.0134099,0.480431,0.556876,0.352551,0.322099,0.171686,0.223386,0.18679,0.453457,2026-10-10 17:26:24,149,4.4,0.171429,0,0,72.2477,0.403096,0,0.105263,0.421053,0.421053,0.0526316,2,118,30,0.141429
Green_YC310_Pro_5B88_261010_172855.csv,3,120,19,17,48288.2,0.153153,5.35813e+06,0.471626,33.11,0.08,0.518333,0.0133333,0.0598997,0.458444,-0.00354528,0.541556,0.516618,0.347211,0.316758,0.193245,0.223037,0.147209,0.411928,2026-10-10 17:28:55,151,4.2,0.157143,0,0,64.2616,0.30327,0,0.0526316,0.684211,0.263158,0,2,119,30,0.138889
Green_YC310_Pro_5B88_261010_173125.csv,3,121,18,13,65166.3,0.220665,5.55444e+06,0.510888,33.18,0.07,0.53,0.011667,0.0592472,0.447194,-0.000652465,0.552806,0.522245,0.344651,0.314198,0.19657,0.226014,0.153005,0.367089,2026-10-10 17:31:25,150,4.2,0.157143,0,0,63.306,0.291325,0,0,0.736842,0.263158,0,2,120,30,0.13
Green_YC310_Pro_5B88_261010_173356.csv,3,122,21,9,69996.5,0.239986,5.68917e+06,0.537835,33.17,-0.01,0.528333,-0.00166667,0.062466,0.502689,0.00321878,0.497311,0.533735,0.342091,0.311639,0.202335,0.224271,0.164698,0.32115,2026-10-10 17:33:56,151,4.3,0.164286,0,0,71.267,0.390837,0,0.2,0.3,0.35,0.15,2,121,30,0.136923
Green_YC310_Pro_5B88_261010_173625.csv,3,123,22,10,52612.2,0.170449,5.79065e+06,0.558129,33.14,-0.03,0.523333,-0.00499967,0.0565117,0.40003,-0.00595428,0.59997,0.551089,0.336021,0.305569,0.198663,0.22347,0.182405,0.323903,2026-10-10 17:36:25,149,4.4,0.171429,0,0,71.4286,0.392858,0,0.047619,0.714286,0.238095,0,2,122,30,0.151667
Green_YC310_Pro_5B88_261010_173854.csv,3,124,19,12,57828.1,0.191312,5.60114e+06,0.520229,33.24,0.1,0.54,0.016667,0.0562277,0.395133,-0.000283972,0.604867,0.554663,0.329951,0.299499,0.185555,0.231493,0.185686,0.336091,2026-10-10 17:38:54,149,4.4,0.171429,0,0,63.4744,0.29343,0,0.05,0.8,0.15,0,2,123,30,0.124444
Green_YC310_Pro_5B88_261010_174128.csv,3,125,18,13,58726.3,0.194905,5.71327e+06,0.542654,33.29,0.05,0.548333,0.00833333,0.061844,0.491966,0.00561634,0.508034,0.550529,0.379083,0.348631,0.201242,0.230807,0.180988,0.348281,2026-10-10 17:41:28,154,4.5,0.178571,0,0,61.3636,0.267045,0,0,0.684211,0.315789,0,2,124,30,0.132632
Green_YC310_Pro_5B88_261010_174407.csv,3,126,22,8,64377.2,0.217509,5.57542e+06,0.515084,33.3,0.01,0.55,0.001667,0.0608848,0.475428,-0.000959188,0.524572,0.538687,0.428215,0.397763,0.189014,0.233915,0.168585,0.339163,2026-10-10 17:44:07,159,4.5,0.178571,0,0,72.0524,0.400655,0,0.2,0.4,0.3,0.1,2,125,30,0.104444
Green_YC310_Pro_5B88_261010_174625.csv,3,127,26,2,47072.9,0.148292,4.79872e+06,0.359744,33.41,0.11,0.568333,0.0183333,0.0574697,0.416546,-0.00341514,0.583454,0.582408,0.456624,0.426172,0.168235,0.244083,0.211148,0.334955,2026-10-10 17:46:25,138,4.5,0.178571,0,0,87.1508,0.589385,0,0.227273,0.454545,0.227273,0.0909091,2,126,30,0.1
Green_YC310_Pro_5B88_261010_174856.csv,3,128,20,15,49712,0.158848,4.81515e+06,0.36303,33.47,0.06,0.578333,0.0100003,0.0560191,0.391536,-0.00145062,0.608464,0.616233,0.449598,0.419146,0.156073,0.249804,0.24359,0.324061,2026-10-10 17:48:56,151,4.6,0.185714,0,0,68.1818,0.352272,0,0.047619,0.761905,0.190476,0,2,127,30,0.122857
Green_YC310_Pro_5B88_261010_175127.csv,3,129,24,8,49576.1,0.158304,4.6213e+06,0.324259,33.5,0.03,0.583333,0.00500033,0.0532167,0.343218,-0.00280244,0.656782,0.571722,0.42745,0.396997,0.175268,0.247328,0.197677,0.318479,2026-10-10 17:51:27,151,4.6,0.185714,0,0,80.3571,0.504464,0,0.25,0.5,0.125,0.125,2,128,30,0.101818
Green_YC310_Pro_5B88_261010_175359.csv,3,130,21,6,66404.2,0.225617,4.6752e+06,0.335039,33.46,-0.04,0.576667,-0.00666633,0.0656653,0.55785,0.0124486,0.44215,0.516038,0.396872,0.366419,0.204258,0.239104,0.140996,0.338099,2026-10-10 17:53:59,152,4.7,0.192857,0,0,67.8879,0.348599,0,0.0526316,0.263158,0.631579,0.0526316,2,129,30,0.1225
Green_YC310_Pro_5B88_261010_175624.csv,3,131,21,9,61873.5,0.207494,5.20494e+06,0.440988,33.41,-0.05,0.568333,-0.00833367,0.0609719,0.476929,-0.00469341,0.523071,0.480634,0.355003,0.331015,0.239783,0.228975,0.105011,0.318424,2026-10-10 17:56:24,145,4.6,0.185714,0,0,70.8661,0.385826,0,0.0526316,0.526316,0.421053,0,2,130,30,0.141111
Green_YC310_Pro_5B88_261010_175859.csv,3,132,18,4,89631.6,0.318526,4.66992e+06,0.333984,33.38,-0.03,0.563333,-0.00499967,0.0661238,0.565755,0.00515191,0.434245,0.498124,0.358028,0.33404,0.259067,0.223326,0.122165,0.271968,2026-10-10 17:58:59,155,4.7,0.192857,0,0,63.981,0.299763,0,0.0625,0.3125,0.375,0.25,2,131,30,0.153333
Green_YC310_Pro_5B88_261010_180124.csv,3,133,23,9,61609.6,0.206439,4.60047e+06,0.320093,33.41,0.03,0.568333,0.00500033,0.0564559,0.399067,-0.00966791,0.600933,0.538243,0.36886,0.344872,0.25118,0.226568,0.161806,0.249029,2026-10-10 18:01:24,145,4.6,0.185714,0,0,75.7409,0.446761,0,0.0952381,0.571429,0.333333,0,2,132,30,0.137333
Green_YC310_Pro_5B88_261010_180354.csv,3,134,18,17,55958.4,0.183834,4.68798e+06,0.337597,33.49,0.08,0.581667,0.0133337,0.0568441,0.40576,0.000388166,0.59424,0.579552,0.338816,0.314828,0.227865,0.235695,0.20221,0.269123,2026-10-10 18:03:54,150,4.4,0.171429,0,0,62.5724,0.282155,0,0,0.894737,0.105263,0,2,133,30,0.126316
Green_YC310_Pro_5B88_261010_180625.csv,3,135,19,12,72145.6,0.248582,5.19551e+06,0.439102,33.56,0.07,0.593333,0.0116663,0.0597879,0.456516,0.00294384,0.543484,0.554701,0.295708,0.289977,0.227662,0.239417,0.17614,0.309882,2026-10-10 18:06:25,151,4.4,0.171429,0,0,67.5355,0.344194,0,0.0555556,0.611111,0.277778,0.0555556,2,134,30,0.14
Green_YC310_Pro_5B88_261010_180857.csv,3,136,17,14,67412.5,0.22965,5.28794e+06,0.457589,33.59,0.03,0.598333,0.00500033,0.06078,0.47362,0.000992063,0.52638,0.537257,0.267315,0.272533,0.240204,0.238345,0.15744,0.311372,2026-10-10 18:08:57,152,4.4,0.171429,0,0,56.9832,0.21229,0,0,0.722222,0.277778,0,2,135,30,0.136667
Green_YC310_Pro_5B88_261010_181124.csv,3,137,17,16,73233.3,0.252933,5.21408e+06,0.442816,33.6,0.01,0.6,0.001667,0.0605299,0.469309,-0.000250095,0.530691,0.520996,0.245462,0.256271,0.238155,0.239303,0.14001,0.286799,2026-10-10 18:11:24,147,4.5,0.178571,0,0,57.9545,0.224431,0,0.0555556,0.611111,0.333333,0,2,136,30,0.14
Green_YC310_Pro_5B88_261010_181355.csv,3,138,19,9,64276.3,0.217105,5.25419e+06,0.450838,33.59,-0.01,0.598333,-0.00166667,0.0625292,0.50378,0.00199934,0.49622,0.519484,0.294604,0.305413,0.239941,0.2384,0.137528,0.261364,2026-10-10 18:13:55,151,4.4,0.171429,0,0,63.9731,0.299664,0,0,0.666667,0.333333,0,2,137,30,0.136667
Green_YC310_Pro_5B88_261010_181628.csv,3,139,21,8,78155.3,0.272621,5.17875e+06,0.43575,33.64,0.05,0.606667,0.00833367,0.0591312,0.445194,-0.00339798,0.554806,0.513661,0.311003,0.321813,0.245875,0.239775,0.130547,0.253199,2026-10-10 18:16:28,153,4.4,0.171429,0,0,68.7773,0.359716,0,0.1,0.55,0.25,0.1,2,138,30,0.14
Green_YC310_Pro_5B88_261010_181855.csv,3,140,19,4,74067.6,0.25627,5.09301e+06,0.418603,33.65,0.01,0.608333,0.00166633,0.065279,0.55119,0.00614781,0.44881,0.495243,0.320039,0.330848,0.2479,0.239873,0.111048,0.239898,2026-10-10 18:18:55,147,4.5,0.178571,0,0,62.2951,0.278689,0,0,0.384615,0.615385,0,2,139,30,0.128571
Green_YC310_Pro_5B88_261010_182124.csv,3,141,20,13,65794.7,0.223179,5.3019e+06,0.46038,33.71,0.06,0.618333,0.0100003,0.0606545,0.471456,-0.00462452,0.528544,0.494638,0.298617,0.330244,0.248078,0.242988,0.109129,0.237026,2026-10-10 18:21:24,149,4.5,0.178571,0,0,69.0449,0.363061,0,0,0.75,0.25,0,2,140,30,0.132222
Green_YC310_Pro_5B88_261010_182355.csv,3,142,16,14,78289,0.273156,5.17634e+06,0.435269,33.72,0.01,0.62,0.001667,0.0638961,0.527346,0.00324156,0.472654,0.519293,0.275644,0.307272,0.243718,0.244434,0.132566,0.214884,2026-10-10 18:23:55,151,4.5,0.178571,0,0,55.1724,0.189655,0,0,0.6875,0.3125,0,2,141,30,0.13625
Green_YC310_Pro_5B88_261010_182627.csv,3,143,18,13,61345,0.20538,5.31586e+06,0.463172,33.74,0.02,0.623333,0.00333333,0.0563175,0.39668,-0.00757865,0.60332,0.554326,0.274217,0.305844,0.243353,0.245562,0.166404,0.220636,2026-10-10 18:26:27,152,4.4,0.171429,0,0,62.4277,0.280346,0,0,0.833333,0.166667,0,2,142,30,0.134118
Green_YC310_Pro_5B88_261010_182858.csv,3,144,21,11,79451.4,0.277805,5.19472e+06,0.438944,33.73,-0.01,0.621667,-0.00166633,0.0574365,0.415973,0.00111896,0.584027,0.587004,0.294001,0.325629,0.251524,0.243311,0.198089,0.235881,2026-10-10 18:28:58,151,4.6,0.185714,0,0,68.7023,0.358779,0,0.0952381,0.571429,0.333333,0,2,143,30,0.137333
Green_YC310_Pro_5B88_261010_183126.csv,3,145,19,12,84416.9,0.297667,5.25002e+06,0.450005,33.74,0.01,0.623333,0.00166633,0.0582101,0.429312,0.000773596,0.570688,0.597486,0.313786,0.336111,0.268623,0.240226,0.207634,0.269663,2026-10-10 18:31:26,148,4.6,0.185714,0,0,64.4796,0.305995,0,0,0.666667,0.333333,0,2,144,30,0.133333
Green_YC310_Pro_5B88_261010_183355.csv,3,146,18,15,74169.7,0.256679,5.19733e+06,0.439466,33.75,0.01,0.625,0.001667,0.0544936,0.365234,-0.00371655,0.634766,0.576054,0.290247,0.314678,0.270032,0.240454,0.185316,0.286713,2026-10-10 18:33:55,149,4.6,0.185714,0,0,61.5034,0.268792,0,0,0.894737,0.105263,0,2,145,30,0.123158
Green_YC310_Pro_5B88_261010_183624.csv,3,147,19,8,77275.9,0.269104,5.30544e+06,0.461088,33.75,0,0.625,0,0.0643983,0.536005,0.0099047,0.463995,0.549381,0.278478,0.302909,0.262892,0.241962,0.157861,0.281292,2026-10-10 18:36:24,149,4.6,0.185714,0,0,63.0531,0.288164,0,0.0555556,0.5,0.388889,0.0555556,2,146,30,0.145
